Time,x,y,z,yaw,yaw_rate,vx,vy,vz,velocity
1749244511.185495,-2.8793334385333456,2.7986182387828547,0.10589844402784322,-0.0016463606574884508,6.138258649733823e-05,-0.0067048489816645684,0.005472664351025003,0.006671599999011346,0.008654770647793523
1749244511.1958356,-2.8792861703787187,2.798556476773797,0.10583395080820773,-0.0018341896066122083,-0.0001917500621503923,0.004726815462685607,-0.006176200905771978,-0.006449321963548915,0.007777418726463322
1749244511.2056165,-2.879315947473936,2.798588641201917,0.10585064394449441,-0.0017547778578873529,9.31486619793039e-05,-0.0029777095217120575,0.003216442812004061,0.001669313628667457,0.004383179024245672
1749244511.215543,-2.8792767037151035,2.7985829881114146,0.10583405018767704,-0.0014785072207564403,0.00027967254329296017,0.003924375883235243,-0.0005653090502377722,-0.0016593756817367966,0.003964883402472149
1749244511.22566,-2.879372163564302,2.7985921523877897,0.10595688405516983,-0.0023903185910697975,-0.0009007746711228197,-0.009545984919867578,0.0009164276375095426,0.012283386749278868,0.009589873185039026
1749244511.2354848,-2.879293602435273,2.798594304438748,0.10588087732074204,-0.0013943544906743328,0.00096950623118421,0.007856112902926427,0.0002152050958326157,-0.007600673442778594,0.007859059942308583
1749244511.2455513,-2.8793945569666595,2.7986219404309165,0.10597193187870087,-0.001917151267153529,-0.0004902909415543626,-0.010095453138658783,0.0027635992168484336,0.009105455795882511,0.010466883715137985
1749244511.2554731,-2.879361001307527,2.7985675621696675,0.105917923539329,-0.0022506274658031975,-0.00033186123667013165,0.003355565913265579,-0.005437826124898848,-0.0054008339371872105,0.00638981811657439
1749244511.2654538,-2.87914039203586,2.7985680732847333,0.10597113051368809,-0.002557470034195555,-0.000302188705357743,0.022060927166700495,5.1111506582657285e-05,0.0053206974359093495,0.022060986375059686
1749244511.275487,-2.87846056188205,2.798564397712718,0.106020902472083,-0.0028732858101983656,-0.0003591038350307415,0.06798301538100127,-0.0003675572015193751,0.004977195839490911,0.06798400899174631
1749244511.2854486,-2.8776746857479827,2.7985622979384726,0.10610755699683026,-0.0039081814979612176,-0.0009560413685521473,0.07858761340671094,-0.0002099774245589714,0.008665452474726498,0.07858789392445556
1749244511.295692,-2.876335869352278,2.798735707398127,0.10615487384253869,-0.0046155095275028325,-0.0006687875123268367,0.13388163957048782,0.017340945965438337,0.004731684570842554,0.13500000674466006
1749244511.3056238,-2.8750744938007995,2.798524413926325,0.10634405228543305,-0.00339064465941234,0.001377454406345795,0.12613755514783165,-0.02112934718021542,0.018917844289435826,0.12789500432360268
1749244511.3155797,-2.8733569055878356,2.798457307638357,0.1058351807561605,-0.0065210923074271576,-0.0032005813051303794,0.1717588212963861,-0.006710628796779972,-0.05088715292725504,0.17188986366848996
1749244511.3255417,-2.8718442800521413,2.7986181377538686,0.10611104614091155,-0.0043102626710657035,0.0020424828426620417,0.1512625535694312,0.016083011551160098,0.02758653847510506,0.1521151648353963
1749244511.335492,-2.869620196329232,2.798368515707275,0.10615125362346274,-0.0049301148077407165,-0.00048370141331883555,0.22240837229094979,-0.024962204659351173,0.0040207482551193885,0.22380481613800238
1749244511.3454435,-2.8674187906278323,2.7982485877870973,0.10609160208711788,-0.004818336929787983,0.0001336025742715644,0.22014057013994837,-0.011992792017778697,-0.00596515363448652,0.22046699907678524
1749244511.3554683,-2.8645805906621025,2.7984266621928087,0.10628233923256154,-0.005022497878021209,-0.0002654257659701269,0.28381999657298707,0.017807440571138144,0.019073714544366738,0.28437808529207204
1749244511.3655732,-2.862133262894315,2.798077941261699,0.10608614803444097,-0.005880395482013066,-0.0008482162707267009,0.2447327767787666,-0.03487209311097139,-0.019619119812057384,0.24720476311710876
1749244511.3755436,-2.8589696139242435,2.798107845958841,0.10607973140309801,-0.005280342956377158,0.0006207733968903751,0.31636489700712644,0.002990469714214683,-0.0006416631342959223,0.31637903054317834
1749244511.385525,-2.857166086538575,2.798408844831715,0.10729787398571175,-0.0003849686485415874,0.0046298972729638885,0.18035273856686906,0.030099887287393656,0.12181425826137404,0.18284724095069968
1749244511.3957953,-2.8536140997855792,2.7995021892154366,0.10813079791407773,-0.007322172980558042,-0.0066453847522827195,0.35519867529956173,0.10933443837215506,0.08329239283659806,0.3716451511169197
1749244511.4066064,-2.849101671870868,2.797717443134235,0.10608844798248,-0.0074176969166985475,-0.00019814573032806324,0.4512427914711292,-0.17847460812014937,-0.20423499315977284,0.4852558527192618
1749244511.4157043,-2.845555638578113,2.798034820882561,0.10602329369205489,-0.007317905942262997,6.52030640765775e-05,0.35460332927548244,0.03173777483258533,-0.006515429042511234,0.3560207964214733
1749244511.4262908,-2.841160798906867,2.797543060646704,0.10574215574701247,-0.0035192335379847705,0.0037445407459628273,0.439483967124632,-0.04917602358567308,-0.028113794504242007,0.44222668243255436
1749244511.4355896,-2.8373579312452106,2.797301142015187,0.10594973563963399,-0.006064920390163622,-0.0024725903705463854,0.3802867661656162,-0.0241918631517013,0.020757989262151777,0.38105546940498397
1749244511.4455347,-2.833046838970966,2.7968741592425532,0.1057125174500247,-0.005632728609764164,0.00030766847031976646,0.43110922742446434,-0.0426982772633977,-0.023721818960928398,0.4332185462924925
1749244511.4555311,-2.828271075642447,2.796978050215156,0.10598258304558503,-0.0075377061053544985,-0.0018584927085242462,0.4775763328519034,0.010389097260299351,0.027006559556032317,0.4776893206281212
1749244511.465689,-2.82373753046284,2.7967513910819832,0.10560896037629382,-0.007725231609518549,-0.00013123300974723657,0.45335451796071347,-0.022665913317299058,-0.03736226692912098,0.4539207668546331
1749244511.4756474,-2.8188800493752484,2.7966203440094395,0.10571880200925743,-0.006381723226894729,0.0013032794722928386,0.4857481087591431,-0.013104707254374404,0.010984163296361149,0.4859248486291961
1749244511.4856236,-2.8137721680141135,2.7966353767538203,0.1057341202112917,-0.009926375673938078,-0.003513622240343622,0.5107881361134936,0.0015032744380860663,0.0015318202034264594,0.5107903482137589
1749244511.5061917,-2.8034985883073587,2.796076271446583,0.10568784056172985,-0.008208787342019764,0.0005696833876203813,0.5413603569846437,-0.021309673057290368,-0.02256126587778101,0.5417796030493853
1749244511.5085108,-2.8034985883073587,2.796076271446583,0.10568784056172985,-0.008208787342019764,0.0010389702762762393,0.48599761369083616,-0.03460085766642251,0.017933300921596507,0.4872277700054044
1749244511.5156915,-2.797625046974431,2.795983859126456,0.10545340530212269,-0.009917864218219923,-0.00164778544105277,0.5873541332927612,-0.009241232012735523,-0.023443525960716027,0.5874268280094159
1749244511.5273285,-2.79183857458318,2.7958442161811474,0.10530772276034517,-0.011418025034593353,-0.0014783552946217636,0.5786472391251074,-0.013964294530843802,-0.014568254177751983,0.5788157123548509
1749244511.5356297,-2.785960845334687,2.7954741012960427,0.10465485308719492,-0.013765774409903873,-0.002297882390424255,0.5877729248493058,-0.03701148851047442,-0.06528696731502442,0.5889370607014545
1749244511.5456846,-2.7799137284755715,2.7952997515358593,0.1049411041037076,-0.013713751980485998,-3.63287457383619e-05,0.6047116859115409,-0.017434976018337878,0.028625101651268137,0.604962975285875
1749244511.555638,-2.7739833702954875,2.7945334005848097,0.10461825939736286,-0.01889814501921705,-0.0051487408429728735,0.5930358180084028,-0.07663509510495992,-0.03228447063447493,0.5979669048054764
1749244511.5656865,-2.7673383088187986,2.7950184794142676,0.1047443719843308,-0.02074545163417046,-0.0017601159693682131,0.6645061476688863,0.04850788294579189,0.012611258696794414,0.6662742941143882
1749244511.5756364,-2.7608574158561128,2.7943850901198966,0.10482706204610999,-0.015460966277781806,0.005210363243066729,0.6480892962685836,-0.06333892943710673,0.008269006177918925,0.6511770542027312
1749244511.5855167,-2.754200432248496,2.7942930347982253,0.1048475296678789,-0.015218520553772426,0.0003107898092002943,0.6656983607616684,-0.009205532167122499,0.002046762176891037,0.665762006533305
1749244511.595597,-2.747626967820062,2.7940865853889703,0.10406066206541775,-0.015622367526487171,-0.00042268496469600184,0.6573464428433873,-0.02064494092550717,-0.0786867602461147,0.6576705554490578
1749244511.605657,-2.74062263314502,2.7935034421335763,0.10384593515587627,-0.017981171073847325,-0.0023724562668371585,0.7004334675042134,-0.05831432553939919,-0.02147269095414822,0.7028567442680557
1749244511.6156442,-2.7339596600008673,2.793610719123507,0.10430430870204012,-0.01914071624035407,-0.0012307558318001685,0.6662973144152762,0.0107276989930849,0.04583735461638483,0.666383669309727
1749244511.6397188,-2.71954910965073,2.7928674912780993,0.10332928802858911,-0.019280630030882265,0.0008357919377367704,0.7269705860974973,-0.04453452130910307,-0.04117132031525306,0.7283334103548798
1749244511.641097,-2.71954910965073,2.7928674912780993,0.10332928802858911,-0.019280630030882265,-0.00098306614840731,0.7140844489162301,-0.029788263231678158,-0.05633074702984797,0.7147054923605638
1749244511.6458604,-2.7124305108595443,2.792408532287994,0.10351864417183873,-0.017616185804640222,0.001645030224624629,0.7118598791185704,-0.04589589901051738,0.018935614324962213,0.713337872991957
1749244511.6558352,-2.7055185619628124,2.7914895874794983,0.10364431325183233,-0.023649153310591614,-0.005934023764496105,0.6911948896731968,-0.09189448084958585,0.012566907999360388,0.6972768253147078
1749244511.6658573,-2.6973786170714726,2.791465307610559,0.10316345561916045,-0.02408395164547224,-0.0005380039197787404,0.8139944891339734,-0.0024279868939380833,-0.04808576326718883,0.8139981102317349
1749244511.675819,-2.6898471380371,2.7913305726634943,0.10313906200248445,-0.02452249647399347,-0.0004943572038955843,0.753147903437279,-0.013473494706461864,-0.0024393616675999485,0.7532684113326231
1749244511.6860144,-2.6822445958611962,2.7906208396990717,0.10264876349603677,-0.022519129896889003,0.00205601982844315,0.7602542175903615,-0.07097329644225603,-0.04902985064476756,0.7635598759572252
1749244511.695819,-2.6748576280732133,2.7902577009241467,0.10251855211081254,-0.02593725300091197,-0.0033326557210398462,0.7386967787982979,-0.03631387749249981,-0.013021138522423259,0.7395888240810036
1749244511.7058923,-2.6666049032157697,2.7897278576402793,0.10219563032901104,-0.026998062649304946,-0.0010818590398066932,0.825272485744355,-0.05298432838674039,-0.03229217818015023,0.826971592487469
1749244511.7158222,-2.658847130256181,2.7893776603753584,0.10215821451772039,-0.025181445464698336,0.0017237344512646762,0.7757772959588571,-0.03501972649209151,-0.003741581129064475,0.7765673146410536
1749244511.7258432,-2.65109156454675,2.789060771091254,0.10280865824222207,-0.026389356930197297,-0.0011936641672039327,0.7755565709431256,-0.0316889284104338,0.06504437245016814,0.776203699370765
1749244511.7358696,-2.6431036510839157,2.788742216309826,0.10254903058220145,-0.027414355700422843,-0.001049673648540124,0.7987913462834229,-0.03185547814279488,-0.025962766002061988,0.7994262857731095
1749244511.7458482,-2.6347531093331664,2.7877345686189265,0.1020163979505151,-0.03148249508438479,-0.004047490903232583,0.835054175074923,-0.10076476908995602,-0.05326326316863472,0.8411117725961349
1749244511.7559652,-2.6263160964308807,2.7876054176433755,0.1018641031711436,-0.028425255325541653,0.002998357594553107,0.8437012902285712,-0.012915097555099564,-0.015229477937150904,0.8438001344383713
1749244511.7657924,-2.617976083139904,2.786988187087992,0.10171387703987009,-0.03211042222843447,-0.003650753087457279,0.8340013290976778,-0.061723055538376315,-0.015022613127350926,0.8362822206179481
1749244511.7757828,-2.6097352814822448,2.786162954416645,0.1019440428002016,-0.03561246908465745,-0.003443781519628293,0.8240801657659169,-0.08252326713469316,0.02301657603315105,0.8282017925767639
1749244511.7858503,-2.601116725632039,2.785972862720911,0.10196325732359054,-0.03337156474922003,0.0021997251432164136,0.8618555850205656,-0.01900916957340293,0.0019214523388946803,0.8620651935665955
1749244511.7958632,-2.592585539551551,2.7854850696757936,0.10167497262882083,-0.03619446817148177,-0.0028040890002347225,0.8531186080487974,-0.04877930451172574,-0.028828469476971375,0.8545120127580216
1749244511.8058426,-2.5839256030782125,2.7848993902645116,0.10112361066155547,-0.03518359160587788,0.000962528268766424,0.8659936473338625,-0.058567941128195855,-0.055136196726536524,0.8679718894933188
1749244511.815833,-2.5754180604539476,2.7846387344263825,0.10164429140605788,-0.034144061157709404,0.0010359973417774628,0.8507542624264897,-0.026065583812906468,0.052068074450241364,0.8511534701194304
1749244511.8258135,-2.56646306231366,2.7837387686494304,0.1009507832676151,-0.03634476797174869,-0.0022132905992069286,0.895499814028744,-0.08999657769521718,-0.06935081384427805,0.9000107226707726
1749244511.8462899,-2.5487401032003585,2.7821068750893025,0.10014331393151976,-0.0409853315188113,-0.003431569646148188,0.8535891717892152,-0.10525311307474361,-0.06276415069523672,0.8600538890137776
1749244511.84862,-2.5487401032003585,2.7821068750893025,0.10014331393151976,-0.0409853315188113,-0.0011882561122799921,0.9187067395409532,-0.05793624293803923,-0.017982782914297002,0.920531738466276
1749244511.855962,-2.539446089140712,2.7817380005525325,0.10012176163101452,-0.042126787763865796,-0.0011278290264718775,0.9294014059646472,-0.036887453677003634,-0.002155230050523982,0.9301331397428199
1749244511.8658228,-2.5301887277155006,2.781012922959812,0.09998753958696015,-0.04127790064874645,0.000845233495956546,0.9257361425211386,-0.07250775927203357,-0.013422204405437455,0.9285713654450954
1749244511.8757973,-2.5215448733490997,2.7804073898194503,0.1000013068626184,-0.04402802522502694,-0.002785641574027725,0.8643854366400916,-0.06055331403618247,0.0013767275658257971,0.8665038297181649
1749244511.8853796,-2.5123031776528397,2.779622158157215,0.09962532164176426,-0.04479740464145531,-0.0007574869006147441,0.9241695696259988,-0.07852316622352085,-0.037598522085414976,0.9274994776583276
1749244511.895059,-2.50309412738527,2.778878196086319,0.09961166247668776,-0.048117112135244625,-0.0032952017962424515,0.9209050267569907,-0.07439620708962202,-0.001365916507649334,0.9239052245417901
1749244511.9052677,-2.4934841814851385,2.777685357285477,0.09918063140804052,-0.04914815291358865,-0.0009730263219120362,0.9609945900131311,-0.11928388008417556,-0.043103106864723906,0.9683693748164706
1749244511.915323,-2.484532306602276,2.776965026786226,0.09927925577023157,-0.05050281250219384,-0.0014224938533679606,0.895187488286231,-0.07203304992513537,0.009862436219104653,0.8980809537373164
1749244511.9254353,-2.4746487107109347,2.7764917262334494,0.09908731951129954,-0.049757068353277784,0.0007309259798632669,0.9883595891341468,-0.047330055277639005,-0.019193625893203226,0.9894921988403971
1749244511.934824,-2.4746487107109347,2.7764917262334494,0.09908731951129954,-0.049757068353277784,-0.00032223572841876664,0.9128381409159392,-0.049513425606173556,-0.032591531602964297,0.9141799882004233
1749244511.9455469,-2.456160604440262,2.774991041719591,0.09881220445943872,-0.05134378227888093,-0.001277504190595139,0.9359724861513374,-0.10055502577968056,0.005080026416882932,0.9413584907153426
1749244511.9552925,-2.446662867298881,2.77448352359728,0.09891060525277698,-0.05250529308788827,-0.0012015017078181513,0.9497737141380913,-0.05075181223110903,0.009840079333825469,0.9511287265730157
1749244511.9818587,-2.4369004082639867,2.7735801779932925,0.09884099509872851,-0.05298694589105134,-0.0004724165891705853,0.9762459034894366,-0.09033456039873045,-0.0069610154048466155,0.9804164405406196
1749244511.9841566,-2.427189609965794,2.772586221759024,0.09860424148434808,-0.05442569245537711,-0.0014580290492780567,0.9710798298192547,-0.0993956234268456,-0.023675361438042775,0.9761534335534573
1749244511.9861856,-2.417519793568282,2.771554085727632,0.09840869910072321,-0.05670354653456431,-0.002246374994775109,0.9669816397511966,-0.10321360313918504,-0.019554238362487486,0.9724744415607467
1749244511.9953113,-2.417519793568282,2.771554085727632,0.09840869910072321,-0.05670354653456431,-0.0020825773533498736,0.9586755194019858,-0.12495533614180765,0.033630322864600104,0.9667846645096204
1749244512.0054333,-2.398096197660688,2.7693980430687066,0.09817631664258977,-0.06164204035310647,-0.0028683827993590504,0.9836840713574269,-0.09064892975074734,-0.05686856867794382,0.9878520034434709
1749244512.0151942,-2.3884124276525185,2.7683984670709165,0.0983691273863323,-0.06498127173458602,-0.0032660036508993136,0.9683770008169557,-0.09995759977901031,0.01928107437425275,0.9735222326505044
1749244512.025059,-2.378803097056767,2.76810448145627,0.09834143184454454,-0.06245894225629531,0.002484463871239702,0.960933059575142,-0.029398561464644146,-0.002769554178776168,0.9613826607551407
1749244512.0350783,-2.368366177580019,2.7668592529746405,0.09782403799984543,-0.06422452998235387,-0.0017715896127018247,1.0436919476747963,-0.12452284816295567,-0.05173938446991072,1.0510941068029183
1749244512.0453243,-2.3578044854149223,2.7657228769380007,0.09749334853795981,-0.06145534150745376,0.0027576776713679955,1.0561692165096837,-0.11363760366398523,-0.03306894618856221,1.0622649946548988
1749244512.0554578,-2.348355141468193,2.764911953192441,0.09802761182948723,-0.06681073945587505,-0.005344141654833256,0.944934394672936,-0.08109237455595775,0.053426329152742036,0.9484076040643241
1749244512.0653138,-2.338430422551115,2.7634871769055414,0.09786022163170047,-0.07267470645642674,-0.005812089299397972,0.9924718917077691,-0.14247762868997427,-0.016739019778676256,1.0026466628414596
1749244512.0764675,-2.338430422551115,2.7634871769055414,0.09786022163170047,-0.07267470645642674,0.006084980344484445,0.9857222268895516,-0.04670207923829217,0.000342742260014961,0.9868279448765506
1749244512.099542,-2.3180686269537323,2.7611950347365326,0.09736578988593192,-0.07167310717558986,-0.00516010885460151,1.050457332848742,-0.18251213766258267,-0.049785916836869726,1.0661947704476225
1749244512.1038604,-2.3073790847077924,2.7599679691956367,0.09671087936440538,-0.07452829819618523,-0.0028658242366106737,1.0689542245939876,-0.12270655408959108,-0.06549105215265388,1.0759739925731826
1749244512.111128,-2.2978179074906127,2.758190068656008,0.09706861297302746,-0.07598744182594336,-0.0014473527579540457,0.956117721717975,-0.1777900539628785,0.035773360862208226,0.9725072755878459
1749244512.1155424,-2.286843604231695,2.7575159818394157,0.09618473783350405,-0.07616596461308478,-0.00019645109179750598,1.0974303258917573,-0.0674086816592201,-0.08838751395234129,1.0994986359927523
1749244512.1255946,-2.2767739657390855,2.756571359145703,0.09662534140097799,-0.07741917164573504,-0.0012197625512449183,1.0069638492609556,-0.0944622693712649,0.04406035674739406,1.0113848496261004
1749244512.135684,-2.2665208642055763,2.7551710605177626,0.09694763890213569,-0.07832470258317471,-0.00093902171141399,1.0253101533509223,-0.1400298627940444,0.032229750115769784,1.0348281369573455
1749244512.1494799,-2.2568607764066684,2.752790276112811,0.0962327850451523,-0.08664757208907808,-0.008284396678218403,0.9660087798907924,-0.2380784404951708,-0.07148538569833884,0.9949142207520757
1749244512.1553488,-2.2456372853497863,2.7522335760898047,0.09562065032550285,-0.08648116820172756,0.00015895649524420543,1.122349105688203,-0.05567000230062291,-0.06121347196494514,1.1237289104562809
