Time,x,y,z,yaw,yaw_rate,vx,vy,vz,velocity
0.08849024772644043,-2.7398867207920947,0.17750839948661265,0.06888352177907736,-0.03127530416066039,0.00012873116184123216,0.0019798067930842933,-0.0004458641678972697,-0.0005189746255226946,0.0020293914837106806
0.09774041175842285,-2.7398867207920947,0.17750839948661265,0.06888352177907736,-0.03127530416066039,0.00021299658176640755,-0.0014412641077488075,-0.00036258775509001584,0.001449141883942684,0.001486173646794406
0.10768961906433105,-2.739901133433172,0.17750477360906175,0.06889801319791679,-0.031063762216178945,-0.00012230830356103363,-0.0011726936862466175,0.002169353763051274,-0.0008335279882337732,0.002466030460279719
0.11809372901916504,-2.7398985800570723,0.1774931386677745,0.06885018697020419,-0.03104070356051559,0.0001555922825863746,0.0014280312962355879,-0.003332847891776569,-0.003949094783026186,0.0036258996749424567
0.12799954414367676,-2.7398831773704013,0.177492481960396,0.06881425205157983,-0.030856260051392272,0.00018866210158416293,0.0015402686670995536,-6.567073785046507e-05,-0.003593491862435849,0.0015416679968976654
0.13794612884521484,-2.739893918265933,0.1775032246714701,0.06886978185562143,-0.031103664351677517,-0.000257155775192536,-0.0010740895531657912,0.0010742711074096523,0.00555298040415958,0.0015191203969518183
0.14793062210083008,-2.7399121668958664,0.17753059401138707,0.06892209472005967,-0.031239560852227784,-0.00014120373341007113,-0.0018248629933381721,0.002736933991698276,0.005231286443824201,0.0032895185999426437
0.15796732902526855,-2.739880617705956,0.17750329024116354,0.06885039531794361,-0.03090724009890932,0.0003363563687002027,0.003154918991032929,-0.0027303770223530144,-0.007169940211605719,0.004172346165429415
0.16801953315734863,-2.739857326421644,0.1775310091785605,0.06883902248276921,-0.03118596400460808,-0.0002688416720686153,0.0023291284311888205,0.002771893739694775,-0.0011372835174397466,0.003620529540430679
0.1779158115386963,-2.7395701546555182,0.1775088202200528,0.06882584717686037,-0.03119832080102462,-1.563541779019069e-05,0.028717176612591544,-0.00221889585076962,-0.0013175305908844082,0.028802772981005448
0.18811750411987305,-2.7388148025577843,0.1774426884188024,0.06908599843295476,-0.03238693750799786,-0.0011973304452191622,0.0755352097733919,-0.006613180125039642,0.026015125609439582,0.0758241522661252
0.1980125904083252,-2.737223036576418,0.1773053560995441,0.06906605139630544,-0.02904764752248625,0.003269071373820085,0.15917659813662333,-0.013733231925830425,-0.001994703664932873,0.1597679287387701
0.20810866355895996,-2.735383615381846,0.1773659899169082,0.06918290119542667,-0.028942757655542706,8.984344880817251e-05,0.1839421194572033,0.006063381736409745,0.011684979912122972,0.18404202756025448
0.21804451942443848,-2.7326248056082094,0.1776639598239638,0.06960969293720332,-0.027412016320713224,0.0014440939884641576,0.2758809773636628,0.029796990705560633,0.04267917417766498,0.27748544885495724
0.22834467887878418,-2.72946872850355,0.17724706597304157,0.06938849276943262,-0.02714056211630857,0.0003835022714665956,0.31560771046592606,-0.04168938509222231,-0.022120016777069096,0.31834922920420494
0.23807740211486816,-2.725747270199932,0.17704303857522283,0.0695538805053583,-0.027497144363734162,-0.0003865590736531513,0.37214583036182525,-0.020402739781874568,0.016538773592567058,0.3727046965712926
0.2580106258392334,-2.7211819517051516,0.17685653627371242,0.06962891767502559,-0.02761226460806184,-0.00012396705797102376,0.4565318494780257,-0.018650230151040503,0.007503716966729412,0.4569126400883582
0.26840949058532715,-2.7105870124580314,0.1768559709602917,0.07023602061270202,-0.025263641076600042,0.0021444907300172257,0.5010487414208953,0.02049949631651171,0.04881338256695761,0.5014679158517461
0.2704010009765625,-2.7105870124580314,0.1768559709602917,0.07023602061270202,-0.025263641076600042,7.059097241912294e-05,0.5584451832911341,-0.02055602765858311,0.011896911200685867,0.5588233826659089
0.27802610397338867,-2.7044120788389434,0.17654304975443008,0.07013718513954541,-0.02418571534603683,0.0010626911193146098,0.6174933619087941,-0.03129212058616271,-0.009883547315661656,0.6182857339549441
0.29802441596984863,-2.6979088814404566,0.17643426384389183,0.06994875132159008,-0.023760774390476153,0.0004511333441724123,0.6503197398486815,-0.010878591053825604,-0.01884338179553302,0.6504107223748492
0.3083980083465576,-2.6834173583115475,0.17602491144663301,0.06991043053815171,-0.0225913277812776,0.0003791090104123818,0.7079048060672832,-0.01615642447020671,-0.0007567308456898902,0.7080891501109302
0.31061220169067383,-2.6834173583115475,0.17602491144663301,0.06991043053815171,-0.0225913277812776,0.0008049244297937652,0.7412475068236279,-0.02477881525567438,-0.00307534749814653,0.7416615508826915
0.3180050849914551,-2.675280176510059,0.17589767227765069,0.06996614799115161,-0.022233825438925797,0.0003518951021054503,0.8137181801488591,-0.012723916898232934,0.005571745299989828,0.8138176544939316
0.33805155754089355,-2.66688497805536,0.17579800349194982,0.07009716812727784,-0.02226883717679314,-1.9795531842696113e-05,0.8395198454699049,-0.009966878570086268,0.013102013612623087,0.8395790073639549
0.34839701652526855,-2.6485883669668193,0.17541992792632116,0.0701538077251868,-0.021861310197031435,0.00025920037128479513,0.9037435122592363,-0.022109979902917853,-0.003020033292497337,0.9040139308450772
0.35036230087280273,-2.6485883669668193,0.17541992792632116,0.0701538077251868,-0.021861310197031435,0.00014457111573958366,0.9259175965948163,-0.015697576659948198,0.008683993083392905,0.9260506517447714
0.3579535484313965,-2.638683036198367,0.17514987498590728,0.07024569643984784,-0.02314803631827064,-0.0013068359861702144,0.9905330768452458,-0.02700529404138785,0.009188871466103699,0.9909011364564941
0.36804723739624023,-2.628542789157661,0.17476055297026563,0.06963393516615178,-0.020818020222377383,0.002343618658474102,1.014024704070593,-0.038932201564165214,-0.061176127369605426,1.01477180527648
0.37795090675354004,-2.6179330159501855,0.17444726333102323,0.0696493145273627,-0.022338052120818873,-0.0015131085718669527,1.060977320747547,-0.03132896392424034,0.0015379361210918208,1.0614397670716929
0.38820409774780273,-2.606653191395812,0.1739130404493782,0.0697532557564328,-0.02007948827886223,0.0022427418660271718,1.1279824554373263,-0.05342228816450356,0.010394122907010639,1.1292468112185001
0.3980865478515625,-2.5954833268831106,0.17368709328825654,0.06999916443512515,-0.021395611284916682,-0.001321117357978739,1.1169864512701633,-0.022594716112164792,0.024590867869234145,1.117214954034049
0.4080634117126465,-2.583408564588527,0.1733460815199658,0.06974169035122545,-0.02023980064650948,0.0011564125716144295,1.2074762294583596,-0.034101176829073876,-0.025747408389970028,1.2079576710167061
0.4182310104370117,-2.571428069468119,0.1730328141547832,0.06975762353685627,-0.020410276544582266,-0.00018244257828495093,1.1980495120408108,-0.03132673651826123,0.0015933185630825908,1.1984590096128067
0.42810511589050293,-2.5589058472790285,0.1727163144554552,0.0696600609550843,-0.019533610116093402,0.0008763993753862938,1.2522222189090382,-0.03164996993279823,-0.00975625817719733,1.252622132219538
0.43807148933410645,-2.5459576751574113,0.17230118132698505,0.06941883235844895,-0.018998099723683107,0.0005356626453475162,1.294817212161714,-0.041513312847016315,-0.024122859663534835,1.295482523252926
0.4480447769165039,-2.5326775758044664,0.1718132278714337,0.0691891678975197,-0.01889445780083487,0.0001034896240781216,1.328009935294494,-0.04879534555513598,-0.022966446092925752,1.3289060817035685
0.45804762840270996,-2.519120579281658,0.1714141159178674,0.06903421828513238,-0.018657762386075222,0.0002371395250243373,1.3556996522808618,-0.039911195356628903,-0.015494961238730898,1.3562870089731172
0.46808385848999023,-2.5053406599098214,0.17086563920782002,0.06939136078966619,-0.019250147430708586,-0.0005910730185131489,1.3779919371836424,-0.05484767100473742,0.035714250453380836,1.379083045344903
0.47800588607788086,-2.491017797024516,0.17043716062157951,0.0695604296550923,-0.01864260308388109,0.0006075943915719033,1.4322862885305376,-0.04284785862405105,0.01690688654261141,1.4329270572158408
0.48839354515075684,-2.476693347040814,0.16987710912486453,0.06967595247926694,-0.018759318536686453,-0.00011197036575390961,1.4324449983702081,-0.056005149671498056,0.01155228241746381,1.4335394135305637
0.49815845489501953,-2.461924206208955,0.169234250189396,0.07000187012963557,-0.018182784925213104,0.0006041341129671623,1.4769140831858873,-0.06428589354685321,0.032591765036862896,1.478312512705594
0.5081503391265869,-2.446904563055938,0.16874812353289143,0.06980735091742145,-0.019255281625442263,-0.0010845875603212993,1.5019643153017181,-0.04861266565045763,-0.019451921221412538,1.5027508095826807
0.5186436176300049,-2.4314704623651466,0.16831939044216349,0.069693478375283,-0.01903674770401457,0.00020982174107244157,1.5434100690791208,-0.042873309072793964,-0.011387254213844622,1.5440054280881488
0.5282776355743408,-2.415697963618443,0.16785420325955192,0.06950516261161722,-0.019137070225970124,-9.550605428334178e-05,1.5772498746703612,-0.046518718261157055,-0.018831576366577785,1.5779357269218321
0.5382339954376221,-2.399687758617697,0.16741243293518476,0.06940888355727534,-0.0187943473502705,0.00034174639885969986,1.6010205000746236,-0.044177032436715225,-0.009627905434188289,1.601629873551974
0.548166036605835,-2.383504580496472,0.16692186873300635,0.06941229018370156,-0.018070688320524542,0.0007258838412089972,1.6183178121224717,-0.04905642021784118,0.0003406626426213921,1.6190611703692523
0.5581512451171875,-2.367030192867205,0.1663968289096987,0.06945992068737222,-0.01785530954177871,0.00022023509650568714,1.6474387629267007,-0.05250398233076492,0.004763050367066757,1.6482752032819177
0.568187952041626,-2.350345137206937,0.16586614680879122,0.06938299903737018,-0.0180178787561482,-0.00015736000285135367,1.6685055660268233,-0.053068210090748136,-0.007692165000204587,1.669349292025107
0.5781435966491699,-2.3331343063039442,0.16528812302250714,0.06916067240720837,-0.01725873233176405,0.0007534139868138145,1.721083090299258,-0.05780237862840765,-0.022232663016180654,1.7220534598812969
0.5881879329681396,-2.315950008284503,0.16476146559879362,0.0689295364127763,-0.018270691753161362,-0.0010145281210655276,1.7184298019441435,-0.05266574237135224,-0.023113599443207178,1.7192366517234658
0.598135232925415,-2.2984991601866662,0.16424685984829065,0.06876225644441947,-0.018097011312378418,0.00017321102738554622,1.745084809783659,-0.051460575050296664,-0.016727996835683157,1.7458434019470868
0.6080160140991211,-2.2810162591288465,0.16368333369608434,0.06892489226838631,-0.017662444508664287,0.0004300994690459466,1.7482901057819689,-0.056352615220631175,0.01626358239668474,1.7491980766103457
0.6181256771087646,-2.263121919642028,0.16300590134877174,0.0693213668892958,-0.016760156057641046,0.0009264529117399692,1.7894339486818733,-0.0677432347312601,0.03964746209094844,1.7907157793874091
0.6282570362091064,-2.2451062969200506,0.16255704129127851,0.06956686237442986,-0.016885217089620527,-0.00014232702358605103,1.801562272197721,-0.04488600574932278,0.024549548513405628,1.802121353882236
0.6381285190582275,-2.226791726133219,0.1620114891034461,0.06970572898575741,-0.01724408424214456,-0.00036353504470403475,1.831457078683174,-0.0545552187832421,0.01388666113275594,1.832269440599606
0.6481068134307861,-2.208263907135933,0.1615085810757618,0.06965395347398315,-0.017224099566606775,2.316367824879219e-05,1.8527818997285728,-0.050290802768429566,-0.005177551177426576,1.8534643057811802
0.6581912040710449,-2.1895327046762536,0.16107603606892956,0.06945779168143748,-0.01636866859847386,0.0008578782281500622,1.873120245967952,-0.04325450068322356,-0.019616179254566823,1.8736196005818244
0.6682264804840088,-2.1706009047283006,0.16057887967333817,0.06948430440928326,-0.01570062832021261,0.0006697424347810305,1.893179994795302,-0.04971563955913916,0.0026512727845776074,1.8938326582646932
0.6783218383789062,-2.151477398318045,0.16007590044713987,0.06942118229637774,-0.015481573545989342,0.00022293225573681222,1.9123506410255509,-0.05029792261982968,-0.006312211290551706,1.913011985129917
0.6884472370147705,-2.1321664867879497,0.15956881508774684,0.0693713831079215,-0.01535076293650116,0.00013828812758732363,1.9310911530095343,-0.050708535939303356,-0.004979918845623987,1.931756816177647
0.6983718872070312,-2.112660977436141,0.15910206767368495,0.06927944360695962,-0.016002369767237463,-0.0006604656503482211,1.9505509351808836,-0.04667474140618855,-0.00919395009618823,1.9511092953036624
0.708303689956665,-2.0929948887607157,0.15839685176207827,0.0694143591448017,-0.016542580993552988,-0.0005412222744652969,1.9666088675425186,-0.0705215911606688,0.013491553784207577,1.9678728954677687
0.7183995246887207,-2.0731833318952058,0.15786276838959018,0.06966158318949828,-0.01635439726288264,0.00018665984520159864,1.981155686550995,-0.05340833724880867,0.0247224044696584,1.9818754513947203
0.7297351360321045,-2.0529616495435765,0.15722278706323445,0.06956307270179089,-0.015628464714723588,0.0007119423887810346,2.0221682351629244,-0.06399813263557319,-0.009851048770738446,2.023180696893576
0.7383289337158203,-2.0329636771547346,0.15662699282736525,0.06997984629781716,-0.015961053328615398,-0.0003279806103564693,1.9997972388841934,-0.05957942358691959,0.04167735960262653,2.0006845589357143
0.7485377788543701,-2.012519407396169,0.15604756220161609,0.06967942650091359,-0.016870422949814,-0.0009255606776161114,2.0444269758565614,-0.05794306257491666,-0.030041979690356713,2.045247920940287
0.7583620548248291,-1.9921020656408193,0.15555292223685402,0.06986313490627792,-0.01687366426692142,4.0644679679117444e-05,2.0417341755349705,-0.049463996476206695,0.01837084053643301,2.042333256472818
0.7753040790557861,-1.971255054082704,0.15487791073453452,0.0698858218366683,-0.015348651652901541,0.001522149357569028,2.084701155811519,-0.06750115023194947,0.002268693039038372,2.0857936893001954
0.7789828777313232,-1.9503287945002235,0.15433707269592042,0.06973459318112485,-0.014965111694722987,0.00038553228729334407,2.092625958248062,-0.054083803861409985,-0.01512286555434561,2.0933247380599456
0.7884049415588379,-1.9293068223658865,0.15381726508495494,0.0698686267064426,-0.014673279751842827,0.00029303338580069895,2.1021972134336986,-0.05198076109654837,0.013403352531775325,2.1028397760391977
0.7983994483947754,-1.9083118489034772,0.15322343483316736,0.06975436957588103,-0.01459737585450258,7.682266703064055e-05,2.0994973462409305,-0.05938302517875804,-0.011425713056156805,2.1003369849983815
0.8083539009094238,-1.8869475954915673,0.15255772311584603,0.06977850197226922,-0.01557420029742958,-0.0009876688855528807,2.136425341190984,-0.06657117173213267,0.002413239638818232,2.1374622708690794
0.8183417320251465,-1.8654479775593404,0.151975584986432,0.07007901226366887,-0.015267853234723497,0.0003079774286547322,2.1499617932226878,-0.058213812941404486,0.030051029139965824,2.1507497670195135
0.828441858291626,-1.843868873274263,0.1513677275787881,0.07028857726112021,-0.014995035400297113,0.0002735609102551448,2.1579104285077477,-0.06078574076438803,0.020956499745133916,2.1587663893397004
0.8383212089538574,-1.8221581579945663,0.1507170922418353,0.070566403903472,-0.01536155258699892,-0.0003660083763490917,2.17107152796967,-0.06506353369528095,0.027782664235179166,2.172046234079163
0.8484878540039062,-1.8003219006851479,0.15009873786777275,0.07033061199598269,-0.01624993966795461,-0.0008963462009616826,2.1836257309418405,-0.061835437406254634,-0.02357919074893189,2.1845010767107693
0.8583157062530518,-1.7782689307769246,0.14936051540753142,0.07030741091145433,-0.015729854164289094,0.0005371720439966951,2.205296990822325,-0.07382224602413279,-0.0023201084528357008,2.2065322435301167
0.8683817386627197,-1.7560798783976566,0.14877960302276355,0.07012598326327366,-0.014842106805671156,0.0008857196214644466,2.218905237926805,-0.05809123847678732,-0.01814276481806737,2.2196655259040217
0.8782768249511719,-1.733784678817427,0.14814639849709402,0.06990126713038179,-0.014666957940947085,0.0001752091356027433,2.229519958022963,-0.0633204525669534,-0.0224716132891864,2.2304189568186508
0.888451337814331,-1.7113495339847535,0.14753246794218203,0.06947645091309786,-0.016876166282995857,-0.0022093192546266565,2.2435144832673393,-0.061393055491199,-0.04248162172839354,2.2443543267258095
0.8978662490844727,-1.6888048013764543,0.14677173490892753,0.06947347266510537,-0.015022342803913392,0.0018547727993119358,2.2544732608299256,-0.07607330332544959,-0.00029782479924883587,2.2557563767561346
0.9077610969543457,-1.6662680053322032,0.14621741134567973,0.06969269099183051,-0.01412523931306113,0.0008922539550897796,2.2536796044251073,-0.055432356324780496,0.02192183267251402,2.2543612189552555
0.9183571338653564,-1.6434271863255001,0.1455333929879498,0.06963076267523045,-0.014505593097157321,-0.00037244047978273446,2.2840819006703095,-0.06840183577299375,-0.006192831660005449,2.285105892536888
0.9281444549560547,-1.6205445688639675,0.14476554504469175,0.07002295828684722,-0.01492326754940829,-0.0004200288865123737,2.288261746153264,-0.07678479432580432,0.03921956116167691,2.2895496770212347
0.9377777576446533,-1.5975820719379963,0.1440958830818388,0.06993980385396523,-0.014901226036738475,2.531756524654781e-05,2.2962496925971188,-0.06696619628529521,-0.008315443288199609,2.2972259623722877
0.9480733871459961,-1.5975820719379963,0.1440958830818388,0.06993980385396523,-0.014901226036738475,0.0010505602664893,2.329697210358095,-0.07157797431182056,0.0005393512134563294,2.3307965373144164
0.9584252834320068,-1.5510132199153635,0.14263893573545938,0.06976833111891816,-0.01382995126637234,-7.5013215405575335e-06,2.3271879919051885,-0.07411676032612058,-0.017686624718163402,2.328367935664152
0.9682903289794922,-1.5274576508036726,0.14206838058504126,0.06934104662782864,-0.013334705212547626,0.0004974645696329895,2.3555569111690877,-0.05705551504181228,-0.04272844910895163,2.3562477996919466
0.9780621528625488,-1.5040459424341412,0.14136516088992443,0.06908158071520262,-0.013410606911429378,-7.868551734249093e-05,2.3411708369531326,-0.07032196951168301,-0.02594659126260168,2.342226732661856
0.9991626739501953,-1.456935061494426,0.1400316775247424,0.06903693266759775,-0.013781995625239686,-0.0008435891426865222,2.3592999123776437,-0.08115270982318179,-0.024421400180141273,2.36069520244711
1.001579999923706,-1.456935061494426,0.1400316775247424,0.06903693266759775,-0.013781995625239686,0.00047347091529890544,2.3517881815938724,-0.0521956266950202,0.019956595419654,2.352367325595792
1.0084385871887207,-1.4331193057736316,0.13939330799482116,0.06918464241258133,-0.01379906565233499,-1.2253305014363855e-05,2.381575572079453,-0.06383695299212455,0.014770974498358458,2.3824309774037298
1.0185341835021973,-1.4089556932698442,0.1385743227038553,0.06923183260153275,-0.01487028740058261,-0.001071202729243981,2.41636125037874,-0.08189852909658568,0.004719018895141258,2.4177487589491373
1.0285542011260986,-1.3849010630893408,0.1377940225029487,0.06950088142305288,-0.014642269993082232,0.00022360420121656082,2.4054630180503356,-0.07803002009066085,0.026904882152013754,2.4067282803098435
1.0389385223388672,-1.360765369584049,0.13713571500616692,0.0691371424693509,-0.014716167897317748,-7.002299625260327e-05,2.4135693505291878,-0.06583074967817792,-0.036373895370198084,2.414466959272186
1.0490574836730957,-1.336502586363329,0.136407531618139,0.06913574671886932,-0.014724093194014673,-1.4758457726377163e-05,2.426278322071984,-0.07281833880279087,-0.00013957504815809152,2.4273708012214454
