Time,x,y,z,yaw,yaw_rate,vx,vy,vz,velocity
1749245352.7898233,-2.9294030335918184,0.3153325278435473,0.10551667631679429,0.4330002629799407,-0.00017457675827252725,-0.0053576432856417,-0.0020460871137994996,0.013837480666885338,0.005735051355780344
1749245352.7997353,-2.9293730591275344,0.31533818913810663,0.1055637292586219,0.4335221776838388,-3.0086232225172e-05,0.00532290545254277,0.0021245092420130174,-0.011599356238746472,0.005731218193029147
1749245352.8098507,-2.929319830073009,0.31535943423052676,0.10544773569623443,0.4335041021720792,5.0669112278532614e-05,-0.003214118713668057,0.0005129346482835029,0.005533543066273128,0.0032547904785040966
1749245352.8197303,-2.9293519712601457,0.3153645635770096,0.10550307112689716,0.43353507344618575,-0.0004033453324909895,-0.005007426624681344,7.413477856044182e-05,-0.00021152404222068988,0.005007975376033692
1749245352.8300307,-2.9294020455263925,0.3153653049247952,0.10550095588647496,0.4331365005249349,0.0005108810729288932,0.0024023767640546367,-0.001539260385785557,-0.0009127183944940276,0.002853197618763609
1749245352.8402364,-2.929366283852813,0.3153145715804863,0.10551210942681022,0.43376298866783314,0.00011816116519234027,0.0011737905938780102,-0.003534074045102864,0.0020280724280202778,0.003723904364312571
1749245352.8504682,-2.9293343243789858,0.31531697180046,0.10554077308782445,0.43344748128047506,-0.0003126674765440461,0.003195947382739206,0.00024002199736639085,0.002866366101422768,0.0032049477737487913
1749245352.8601978,-2.929170293101189,0.3154645534043653,0.10555386842453313,0.43349934479593816,3.536956611793945e-05,0.016403127779662796,0.014758160390532238,0.0013095336708679461,0.022065037934900996
1749245352.870042,-2.9280589350996116,0.31599585362523236,0.10581725583326806,0.42869830357943345,-0.004778710488950642,0.11113580015775781,0.05313002208670592,0.02633874087349386,0.12318265025416095
1749245352.879931,-2.926098968968686,0.31648111419468883,0.10563555026081817,0.4285030538051383,-0.00018017764353887207,0.195996613092575,0.048526056945646934,-0.018170557244989727,0.20191446344046954
1749245352.8898876,-2.9235247931336286,0.31790966549998834,0.10598027436047897,0.4280740963458989,-0.00043539734843571037,0.25741758350572574,0.1428551305299508,0.03447240996607981,0.29440006898208526
1749245352.8998666,-2.9207714759348296,0.3189812251664128,0.10625150744795323,0.4276596914240962,-0.0003857655838424674,0.275331719879901,0.10715596664244709,0.027123308747425967,0.2954487386317659
1749245352.9111278,-2.9166268846161696,0.32076912384213946,0.10629661365918366,0.42739432379518183,-0.00028348933126358356,0.41445913186599626,0.17878986757266513,0.004510621123043901,0.45137809952828506
1749245352.919953,-2.9124946754555374,0.32271340378339813,0.10636200012210958,0.4252845668464762,-0.0020939103384266717,0.4132209160632172,0.19442799412586753,0.006538646292592043,0.4566768774220267
1749245352.9303684,-2.9070686567482182,0.32462754113130476,0.10622083094366364,0.42334816152065796,-0.001916285715287351,0.542601870731918,0.19141373479066304,-0.0141169178445949,0.5753746674891825
1749245352.9399543,-2.9012189176238636,0.32708096907962647,0.10611410561472727,0.42171413878428204,-0.0016388708928823915,0.5849739124354603,0.2453427948321707,-0.010672532893636621,0.6343402598023479
1749245352.950022,-2.8946049705415016,0.32990521470151185,0.10599883947977969,0.4200716331477949,-0.0016401756933724608,0.661394708236207,0.28242456218853795,-0.011526613494758364,0.7191707679058186
1749245352.9599903,-2.887065298900804,0.3326884151717249,0.10570778776422206,0.41770110988153814,-0.0023722837568163125,0.7539671640697687,0.27832004702130764,-0.029105171555762754,0.8036967917500681
1749245352.9708483,-2.87922165402652,0.33577120915864306,0.10585177492277055,0.4152588023068126,-0.0024342318237432258,0.7843644874284017,0.3082793986918131,0.014398715854849198,0.8427715211115081
1749245352.9841266,-2.8607936439336084,0.34302912882108955,0.10559980494650285,0.41342234675428247,-0.0011397860818542246,0.8937197254116569,0.3476103113167761,-0.023725200131054225,0.9589410180629638
1749245352.9867537,-2.8607936439336084,0.34302912882108955,0.10559980494650285,0.41342234675428247,-0.000694435031177585,0.9490812838794938,0.3781816549278727,-0.00147179749571541,1.0216538785392697
1749245353.0001488,-2.8509029531806673,0.34707122494393017,0.10559835998359914,0.4136947672829147,0.0002734523965374383,0.9890690752941023,0.40420961228406216,-0.00014449629037183165,1.0684769751220484
1749245353.0101652,-2.840303986684386,0.3513456126795155,0.1053880567224871,0.4093175289779649,-0.004365370272772677,1.0598966496281115,0.42743877355853055,-0.02103032611120298,1.1428406770123807
1749245353.019992,-2.8290456170543976,0.35608559163394,0.10565709161723107,0.40763315720791904,-0.0016856419591981052,1.1258369629988607,0.47399789544245174,0.02690348947439608,1.2215493735982887
1749245353.0301185,-2.817245821273941,0.3608158636338443,0.1054970726882162,0.40719131239825074,-0.0004429404415690346,1.1799795780456535,0.4730271999904334,-0.016001892901486292,1.271261789143207
1749245353.0399814,-2.805015254769283,0.36592771990586487,0.10537853748615997,0.40334942204980956,-0.0038516043912872,1.2230566504658036,0.5111856272020543,-0.01185352020562358,1.3255860272749516
1749245353.0500424,-2.7921321987468724,0.3708126542727852,0.10505740047667043,0.40165232777915627,-0.0017025397007837785,1.2883056022410688,0.4884934366920335,-0.03211370094895333,1.3778088265274384
1749245353.0600915,-2.7783744366324155,0.37626130507076155,0.10477830370944027,0.39931056914875634,-0.0023352783430323023,1.3757762114456895,0.5448650797976351,-0.027909676723016086,1.479742592197284
1749245353.0701678,-2.7642783834327838,0.38145600696684534,0.1045638323000662,0.39731403351829453,-0.0019922171196538685,1.4096053199631697,0.5194701896083787,-0.021447140937407017,1.5022770836168122
1749245353.0799434,-2.7495982532141485,0.3870223945655305,0.10439152548333937,0.3950519628696777,-0.002266537813760896,1.4680130218635234,0.5566387598685163,-0.0172306816726836,1.5700028475607404
1749245353.090014,-2.734638567660748,0.392626943425533,0.1043886440809842,0.3901132270934701,-0.004966189714206151,1.4959685553400437,0.5604548860002501,-0.00028814023551732015,1.5975079335664442
1749245353.0998995,-2.7189729366492403,0.3986184050041707,0.10446836642342214,0.3893841829465892,-0.0007309434338486361,1.5665631011507752,0.5991461578637669,0.00797223424379434,1.6772286869625288
1749245353.1101317,-2.7030174961674813,0.404583880787043,0.10423500046204841,0.38742541939889763,-0.0019456613694973303,1.595544048175901,0.596547578287232,-0.02333659613737299,1.703417101836747
1749245353.119984,-2.6863577457393437,0.4107681024931491,0.10383449633193004,0.3825027713715009,-0.004934156192567601,1.665975042813761,0.6184221706106108,-0.04005041301183704,1.777053410672018
1749245353.1299887,-2.669434746738161,0.41704679664749844,0.10350712170174851,0.38100628275804416,-0.0014987356324677212,1.692299900118277,0.627869415434934,-0.032737463018152335,1.8050204859720946
1749245353.139936,-2.6518791859808473,0.4233743503157823,0.10325582178222927,0.37693928947994165,-0.00406592900349221,1.7555560757313682,0.6327553668283858,-0.02512999195192489,1.8661073091565357
1749245353.1501667,-2.6341189976046744,0.42986178229365074,0.10297260692723502,0.37497848629102565,-0.001971210469492469,1.776018837617288,0.6487431977868441,-0.028321485499424592,1.8907963000403198
1749245353.1599483,-2.6155152588431565,0.4365281378407978,0.10267088215178534,0.371596600182449,-0.00334970725942947,1.8603738761517885,0.6666355547147063,-0.03017247754496799,1.9762069532004523
1749245353.1703212,-2.596937686271,0.4430615897990566,0.10266032461489415,0.3684804096035867,-0.0031193785318326993,1.857757257215642,0.6533451958258774,-0.0010557536891192543,1.9692947904379727
1749245353.180004,-2.57751203944507,0.4496315283058071,0.1021654563070642,0.36701331583580327,-0.0014730411524640455,1.9425646825930176,0.6569938506750528,-0.04948683078299515,2.050658056791172
1749245353.1901474,-2.557933474330332,0.45666670092825323,0.10225976295197285,0.36480310267721366,-0.002200283965374685,1.9578565114737767,0.7035172622446129,0.009430664490865659,2.0804179046038858
1749245353.200034,-2.5379595865488507,0.46335480064071916,0.10196696629568265,0.36027940022008964,-0.004537483350785303,1.9973887781481459,0.6688099712465922,-0.02927966562902007,2.10638759697996
1749245353.2104406,-2.5176331528438123,0.4702783399752013,0.10158339704729231,0.35818505303952974,-0.0020889970618077707,2.0326433705038394,0.6923539334482143,-0.038356924839033635,2.147322295514677
1749245353.2200828,-2.4969038823138585,0.4773093073645488,0.10126231539586139,0.3538564922092651,-0.00432451758248233,2.072927052995377,0.7030967389347498,-0.03210816514309239,2.1889201884355622
1749245353.2300818,-2.475664118226163,0.4843464645951629,0.10077793402942715,0.3520353328315568,-0.0018169269412827158,2.1239764087695345,0.70371572306141,-0.04843813664342361,2.237519073414431
1749245353.2400148,-2.4540196290994505,0.49172595879533365,0.10031622540309404,0.346511913062415,-0.005526656206126011,2.1644489126712685,0.7379494200170755,-0.04617086263331155,2.2867899864367462
1749245353.250318,-2.4320523135976546,0.4989384036553747,0.10002864361351664,0.34646431884726203,-4.566625706278276e-05,2.196731550179587,0.7212444860041023,-0.028758178957739855,2.312103611896693
1749245353.2601354,-2.4094948022834095,0.5065317196530392,0.09992345143107778,0.3420848782010202,-0.004379267668564566,2.2557511314245104,0.7593315997664551,-0.010519218243885964,2.380125552429292
1749245353.2702305,-2.3873610943365913,0.5133805667771689,0.09954137780857882,0.33734472367761276,-0.004739934051444681,2.2133707946818237,0.6848847124129698,-0.03820736224989657,2.3169111644703695
1749245353.2800705,-2.364391176602798,0.5207205349455132,0.09892879932680701,0.3366644174521612,-0.0006793040786038535,2.29699177337932,0.7339968168344257,-0.06125784817718055,2.4114150480776515
1749245353.2903996,-2.34102609018959,0.5278831872439949,0.09891484258448138,0.3321496370446063,-0.004519538834753808,2.3365086413208225,0.7162652298481675,-0.0013956742325627047,2.4438307041315945
1749245353.300638,-2.3175627480106367,0.5354394902890235,0.0988253562209572,0.328234672038629,-0.003929290770697528,2.3463342178953184,0.7556303045028634,-0.008948636352418271,2.4650073872403557
1749245353.3103852,-2.293821247154368,0.5428720245276085,0.09864996073581042,0.3251894086182094,-0.003035199748674794,2.3741500856268694,0.7432534238585031,-0.017539548514677872,2.4877729561114412
1749245353.3201203,-2.2693762845508973,0.5501320718679418,0.09820291889634594,0.3216783646612375,-0.0035137534171424483,2.444496260347062,0.7260047340333253,-0.04470418394644793,2.5500283999770614
1749245353.3303332,-2.2447281409412683,0.5577322304168132,0.09738688522214554,0.3213573023426839,-0.0002909796733383088,2.464814360962908,0.7600158548871416,-0.08160336742003976,2.5793281942569504
1749245353.3401148,-2.220191647730959,0.5649687889467004,0.09728200944590316,0.31685778168061635,-0.004511125089363808,2.4536493210309374,0.7236558529887249,-0.01048757762423802,2.5581385388912032
1749245353.3502977,-2.1950554944778955,0.5724296705512149,0.09693319199554272,0.3130171707654474,-0.0038265422594419116,2.51361532530634,0.7460881604514413,-0.034881745036044465,2.62200487161651
1749245353.3600965,-2.1696520898976632,0.5796690397763025,0.09687129069203654,0.30937297483888143,-0.0036624014487309916,2.540340458023227,0.7239369225087611,-0.0061901303506181615,2.6414795684315098
1749245353.3750613,-2.144121642032061,0.5868028370271362,0.09663717763857974,0.3048869463045768,-0.004455696556642232,2.5530447865602213,0.713379725083374,-0.023411305345680256,2.6508391717232405
1749245353.380042,-2.118189942349254,0.5942650121262962,0.09678881281677541,0.3004937456780848,-0.004419561394736976,2.5931699682807174,0.7462175099160029,0.015163517819567762,2.698401574358097
1749245353.3902504,-2.091575555180898,0.601504309260076,0.09659128481951378,0.29584029290339986,-0.004665943840410078,2.6614387168355957,0.7239297133779798,-0.019752799726163728,2.7581389148088657
1749245353.4002855,-2.0653768427531163,0.6086746189993525,0.09615486719437955,0.29075710217239015,-0.005081956947315128,2.61987124277816,0.7170309739276459,-0.043641762513423055,2.7162214096622552
1749245353.4102573,-2.0386366453528435,0.616220585899575,0.09564359823648032,0.28907345432390946,-0.0016652699688182897,2.674019740027278,0.7545966900222467,-0.051126895789922744,2.778452399205011
1749245353.4202054,-2.0115792258592338,0.6234428053945171,0.09508319067992885,0.28720340184765186,-0.001857233074915671,2.7057419493609736,0.7222219494942173,-0.056040755655147045,2.8004721103526364
1749245353.4359295,-1.9568507263800048,0.6379394075796693,0.09502222654880656,0.27925409005306934,-0.0027955843305016276,2.7228291594357357,0.7406089351147505,-0.027631736551592123,2.821754813275831
1749245353.43838,-1.9568507263800048,0.6379394075796693,0.09502222654880656,0.27925409005306934,-0.005162549853001288,2.750020788487162,0.7090512834004636,0.021535323439363097,2.839959165129562
1749245353.4545426,-1.929121724209653,0.6449604825479025,0.09473231768036305,0.2772722266015653,-0.0019898405699602956,2.772900217035179,0.7021074968233232,-0.028990886844350305,2.8604074099207013
1749245353.4603155,-1.9013090161901638,0.6523362080651841,0.09472995085777529,0.27432467185003934,-0.002935377003514332,2.7812708019489207,0.7375725517281606,-0.0002366822587765438,2.8774086506501617
1749245353.4704504,-1.872614239561952,0.6592928214744597,0.09416700844490804,0.26756401784991984,-0.006760546460907602,2.869477662821174,0.6956613409275558,-0.05629424128672511,2.952599999778296
1749245353.4802947,-1.8443878201948578,0.6661650979532413,0.09364834688147361,0.2638610564108731,-0.003704149906561915,2.8226419367094246,0.6872276478781636,-0.05186615634344277,2.9050971314017855
1749245353.4903402,-1.81610300963633,0.6731871902443902,0.09329399095704527,0.26089359383343,-0.0029715272248582963,2.828481055852783,0.7022092291148918,-0.03543559244283401,2.914344331881908
1749245353.5003326,-1.7872994424996291,0.6803898662574535,0.09297416112025216,0.2597010671743859,-0.0011912358392515672,2.8803567136700847,0.7202676013063236,-0.03198298367931146,2.96904702143228
1749245353.5104032,-1.7582124658659093,0.6869458667096549,0.09291844399046664,0.25315129796834407,-0.006553773103225797,2.908697663371984,0.6556000452201394,-0.0055717129785512465,2.981666231521947
1749245353.5203109,-1.729150834903224,0.6939324092812441,0.0928276140894137,0.24895060871344876,-0.00420252926633754,2.9061630962685214,0.698654257158926,-0.00908299010529412,2.98896331746633
1749245353.5303335,-1.6994698963707675,0.7001424418188724,0.09193052668925138,0.24382819094815714,-0.005113777664155624,2.968093853245657,0.6210032537628307,-0.08970874001623247,3.032363131760224
1749245353.5403626,-1.6696923910671688,0.7074130676465539,0.09140316904014853,0.2426794324286012,-0.0011627381410912827,2.9777505303598684,0.7270625827681454,-0.0527357649102847,3.065227270582063
1749245353.5505893,-1.6395986089808248,0.7139672029477327,0.09057241035529091,0.2387991794048432,-0.00387037630163671,3.0093782086344056,0.6554135301178876,-0.0830758684857616,3.07992274222345
1749245353.5602593,-1.6099863355984307,0.7202363985590281,0.09047585594637966,0.23290052680721018,-0.005902830775843972,2.9612273382394028,0.6269195611295353,-0.009655440891125078,3.0268623167999014
1749245353.570418,-1.5793067533194187,0.7266429876177626,0.08986826572661463,0.23023404488104657,-0.0026701152707048013,3.067958227901202,0.640658905873448,-0.06075902197650307,3.1341364874270625
1749245353.580273,-1.5489245089709711,0.7331672670184959,0.08954249028633669,0.2291642349068483,-0.0010647321066988567,3.0382244348447607,0.6524279400733302,-0.03257754402779395,3.107486111549993
1749245353.5903995,-1.5186255703131721,0.739211371742627,0.08947147552526248,0.2195862820131388,-0.009588550335628249,3.029893865779898,0.6044104724131083,-0.0071014761074211785,3.0895904027966705
1749245353.6003904,-1.487373386386219,0.7457887340390474,0.08880763499434015,0.2177046368731605,-0.001884698975972567,3.125218392695306,0.6577362296420475,-0.06638405309223327,3.193682349549618
1749245353.610487,-1.4565309994112923,0.7520598661090736,0.08883752978325421,0.21304293822251016,-0.00465974866905703,3.0842386974926805,0.6271132070026164,0.002989478891406161,3.14734798163604
1749245353.6202717,-1.4254486759156677,0.7580880076915592,0.08806985777041033,0.2135859209138904,0.0005350500093280144,3.1082323495624564,0.6028141582485547,-0.07676720128438758,3.1661480142677254
1749245353.6303747,-1.3938902676925748,0.7643037285888021,0.08783198815320119,0.2103515990366185,-0.0032268773969986024,3.155840822309286,0.6215720897242982,-0.023786961720914657,3.2164706058781234
1749245353.640247,-1.362081016714717,0.7700141785886526,0.08696276412299826,0.20786656860802202,-0.0024818644978860174,3.1809250977857806,0.5710449999850487,-0.08692240302029253,3.2317761168947645
1749245353.650456,-1.3306635005182574,0.7756723038771828,0.08723859406233225,0.1997592873756702,-0.00812013570117376,3.1417516196459605,0.5658125288530158,0.02758299393339908,3.1922949514972863
1749245353.6603184,-1.298635888818285,0.7810330509189999,0.08653461253286679,0.19520954964247414,-0.0045616515615863554,3.202761169997248,0.5360747041817104,-0.07039815294654639,3.247315075644131
1749245353.6703062,-1.266549474811653,0.7863255246416044,0.08605854932408655,0.1893741573494122,-0.005840643299604231,3.2086414006631925,0.5292473722604552,-0.04760632087802419,3.251996681900898
1749245353.679576,-1.266549474811653,0.7863255246416044,0.08605854932408655,0.1893741573494122,-0.0013241856104949255,3.2136305891649064,0.5930150681386914,-0.04451521161774885,3.267887457464825
1749245353.6895366,-1.202171270846131,0.7975363423450026,0.08570243570520303,0.1800141731386934,-0.008025668726536605,3.224189807387301,0.5280667022011243,0.008903849729396951,3.267147740160174
1749245353.6996417,-1.1696841430002132,0.8026195386363031,0.08508500444880142,0.1766397741169981,-0.003384638391748662,3.2487127845917785,0.5083196291300496,-0.06174312564016099,3.288240198362793
1749245353.7097335,-1.136696655224165,0.8077642923076022,0.08474908146766236,0.1747420896866775,-0.001890518253695585,3.2987487776048097,0.5144753671299074,-0.03359229811390613,3.3386267238391114
1749245353.7197664,-1.1041008462033033,0.8125042449777059,0.08456193872420532,0.1663059507289742,-0.008441066368740901,3.259580902086179,0.4739952670103742,-0.01871427434570333,3.2938638664026754
1749245353.7303452,-1.0708559532473838,0.8177419459743034,0.08435807293957323,0.164802665633023,-0.0015042466089172496,3.324489295591948,0.5237700996597483,-0.020386578463209293,3.3654961289240894
1749245353.7400236,-1.0376726734338149,0.8226062380218795,0.08378176608163078,0.16547652558511955,0.0006729997354325565,3.3183279813568944,0.4864292047576102,-0.057630685794245184,3.3537909838117885
1749245353.7498503,-1.004306795890482,0.8270527172617249,0.08289278596428429,0.160682559716704,-0.004789418236402664,3.3365877543332756,0.44464792398454245,-0.08889801173464912,3.36608520668603
1749245353.7599418,-0.970641068159929,0.8319849041277257,0.08282486863691318,0.15826426874281335,-0.0024146092256095886,3.3665727730553097,0.49321868660008317,-0.006791732737110312,3.402510383391773
1749245353.7705708,-0.9372022082350683,0.8360745140483897,0.08231035208834754,0.1526024840902596,-0.005677253026535712,3.343885992486073,0.40896099206639835,-0.05145165485656439,3.3688013630632043
1749245353.7799602,-0.9038344864999638,0.8408006220649968,0.08171577880191712,0.14816155284020105,-0.004373077418721289,3.3367721735104494,0.4726108016607111,-0.05945732864304221,3.370075593775313
