Time,x,y,z,yaw,yaw_rate,vx,vy,vz,velocity
0.09055352210998535,-2.77975136222148,0.15657398507495257,0.0675649689693201,-0.018999355629569864,-0.00017606707122201816,-0.011674655172555504,0.0015945217232055109,0.0030061093768254943,0.011783041751765597
0.09225606918334961,-2.779749700642383,0.15653874231310838,0.06744695255735707,-0.01888824291733519,0.000783452649664966,0.006362625635558672,-0.00012781147206986088,-0.0039061375120164055,0.006363909234948363
0.10459089279174805,-2.7797810814829806,0.1565414354119145,0.06752651576622679,-0.019425600831987824,-0.0005235204455002273,-0.003138084059761681,0.00026930988061280026,0.00795632088697179,0.003149618925826747
0.11585283279418945,-2.7797810814829806,0.1565414354119145,0.06752651576622679,-0.019425600831987824,0.0006215439894715323,0.00727939340463557,0.0010192023785215998,0.0013750611999235884,0.0073503973925112326
0.12755870819091797,-2.7797038406234837,0.15651893016862456,0.0674953100177823,-0.018736720547194684,-0.00020756401151235076,-0.004895297192231141,0.0020243406261194474,0.003141170847782704,0.005297347408923051
0.12837505340576172,-2.7797038406234837,0.15651893016862456,0.0674953100177823,-0.018736720547194684,0.00024808737237139037,0.005339989737285222,-0.005294067333636021,-0.007636806892154235,0.007519483980126795
0.13547635078430176,-2.7797944110994517,0.1565361256732901,0.06751513803612344,-0.019279078245347258,-0.0005227324661440146,-0.009057047596794376,0.0017195504665529215,0.001982801834113368,0.00921883750684549
0.1457672119140625,-2.779662839162893,0.15652109450304108,0.06756758964178296,-0.01911789432882648,0.00015931366760972766,0.013157193655866095,-0.001503117024900802,0.005245160565951756,0.013242775603645547
0.15526533126831055,-2.779662839162893,0.15652109450304108,0.06756758964178296,-0.01911789432882648,-0.0019251431011106995,0.0647493313675529,0.002467411715045831,0.012462808300728323,0.06479632731194504
0.16584062576293945,-2.777634240619875,0.15666325221612512,0.06816048361802518,-0.02504890407254836,-0.0039973806833203005,0.13811052293424275,0.011748359593358182,0.04682658932349398,0.13860930884433717
0.1841592788696289,-2.7757271100929257,0.15652490208516728,0.06823851915079944,-0.021636167701679487,0.003449422171249899,0.19071305269493521,-0.013835013095783721,0.007803553277425934,0.19121421509809788
0.19420313835144043,-2.772946957408943,0.15662182740487324,0.06845929802541016,-0.021527758989232103,8.456088851362119e-05,0.2780152683982795,0.009692531970595386,0.0220778874610722,0.27818417395417805
0.20417499542236328,-2.7697491832539805,0.1565574452526355,0.06878311543320415,-0.020096841006032914,0.0014092484012584695,0.3197774154962474,-0.006438215223772414,0.032381740779398316,0.3198422205974803
0.21423029899597168,-2.765890397693184,0.15662710446117825,0.06914739088329289,-0.022246901458187043,-0.0021434693084945748,0.38587855607965516,0.006965920854273833,0.03642754500887413,0.3859414257312469
0.2241194248199463,-2.7613463512707694,0.15655566327954665,0.06909932737275291,-0.02160532626095038,0.0006389418953491415,0.45440464224144606,-0.007144118163160407,-0.004806351053997238,0.454460798435801
0.23431849479675293,-2.756170771994529,0.15639232419015708,0.06895098248077576,-0.021733249323273272,-0.0001175855105341771,0.5175579276240239,-0.016333908938956365,-0.01483448919771535,0.5178156091000932
0.2440652847290039,-2.750322770488249,0.15613742415483106,0.06883297349566457,-0.02249154208283001,-0.0007601645052137671,0.5848001506280287,-0.025490003532602223,-0.011800898511118985,0.585355410374464
0.25409698486328125,-2.743647052892361,0.15581769005535293,0.06862575073292886,-0.02313803537546763,-0.000666231243799644,0.6675717595888031,-0.031973409947813614,-0.020722276273571483,0.6683370056671871
0.26409268379211426,-2.7362484635631046,0.15567418233311486,0.06864776789947018,-0.025977674419774423,-0.0028448595594497816,0.73985893292563,-0.014350772223806207,0.0022017166541321576,0.7399980981686854
0.27425718307495117,-2.728138132095961,0.15515473362728638,0.06846361165108598,-0.023874443631355935,0.0020979512774872235,0.8110331467143794,-0.05194487058284847,-0.018415624838419298,0.812694921018519
0.284210205078125,-2.719513931966215,0.15469510678261816,0.06858217938234032,-0.024679922623349768,-0.0007805875938470676,0.8624200129745851,-0.0459626844668215,0.011856773125433484,0.8636439353937942
0.29441285133361816,-2.7099585988574106,0.15421025585437906,0.0686700163319406,-0.022777685749942794,0.0018695783937656533,0.9555333108804298,-0.04848509282391056,0.008783694960028121,0.9567626207311087
0.3042032718658447,-2.7002097004065972,0.15378621910967838,0.06881012166263523,-0.024431512781738135,-0.0016261290604097833,0.9748898450813392,-0.042403674470067876,0.014010533069462594,0.9758116015150061
0.3142874240875244,-2.689331058777593,0.15339025569438536,0.06863330902841025,-0.028226729921787524,-0.0037885417676853717,1.0878641629004093,-0.03959634152930214,-0.01768126342249765,1.0885845429664678
0.32415318489074707,-2.6778600209297743,0.15281955762127175,0.06838654416345952,-0.025973561528412497,0.002235249735226463,1.1471037847818888,-0.05706980731136069,-0.024676486495073258,1.148522553530182
0.33429813385009766,-2.6662464967236565,0.15220046188992178,0.06842688585792979,-0.024543439257095078,0.0014061536040190432,1.161352420611772,-0.061909573134996676,0.004034169447027225,1.163001392994256
0.34425926208496094,-2.653853770462284,0.15180122202376242,0.06826823021254744,-0.025047416283666545,-0.000493670574474034,1.2392726261372555,-0.03992398661593621,-0.015865564538235233,1.2399155481727129
0.35430097579956055,-2.6405732847971835,0.15104984712840147,0.06807687840336922,-0.024164196973472687,0.0008889400826743491,1.3280485665100539,-0.07513748953609511,-0.01913518091782168,1.330172408879088
0.36414575576782227,-2.6271707470859162,0.1507031013731655,0.06832030520283651,-0.027187452465399827,-0.0030183624816220007,1.3402537711267204,-0.03467457552359665,0.024342679946728896,1.3407022403230096
0.3741765022277832,-2.612897578874219,0.15008883385754274,0.0686645187681069,-0.027126785735627785,6.648966860568139e-05,1.4273168211697218,-0.06142675156227684,0.03442135652703959,1.4286380065648308
0.38410520553588867,-2.5982011544184136,0.14950984574960918,0.0686937631642711,-0.02686716549370796,0.00025975679985087866,1.4696424455805435,-0.05789881079335535,0.0029244396164196385,1.4707825094633284
0.39420080184936523,-2.5830443492935684,0.1488762061390046,0.06880243888983009,-0.027152441687519516,-0.00028759429943921297,1.5156805124845185,-0.0633639610604586,0.010867572555899041,1.5170044190728662
0.4041178226470947,-2.567237636386329,0.14805954813892183,0.06845583587860678,-0.026153972323354452,0.0009989811568044903,1.580671290723945,-0.0816658000082765,-0.03466030112233148,1.582779527353666
0.4141862392425537,-2.551262495748726,0.14740060393233298,0.06823891238939139,-0.026538298917750672,-0.0003889070185270819,1.597514063760297,-0.06589442065888518,-0.02169234892153843,1.598872496037726
0.42424654960632324,-2.534442005060065,0.14652627337271087,0.06808492354186309,-0.0252644137967311,0.0012980681619021372,1.6820490688660872,-0.08743305596221052,-0.015398884752830522,1.6843199248801166
0.4344141483306885,-2.5173141564621844,0.14563095164256498,0.06830148700403418,-0.024787973878502834,0.0004828736641766556,1.7127848597880746,-0.08953217301458927,0.0216563462171096,1.7151233150779477
0.4441375732421875,-2.4995908175003687,0.14488493001038674,0.0683801961007186,-0.024780297662923407,8.77941881367722e-06,1.772333896181566,-0.07460216321782398,0.007870909668442061,1.7739033012853065
0.45428895950317383,-2.4813637519689142,0.14407385458000668,0.06846355783160869,-0.02632922015038537,-0.001545563774203427,1.8227065531454478,-0.08110754303800594,0.008336173089008858,1.8245102390551338
0.46423816680908203,-2.462735883931052,0.14336704180201454,0.0682387538965805,-0.02744044272975078,-0.0011241254415602913,1.8627868037862427,-0.0706812777992144,-0.02248039350281894,1.8641272808988918
0.4742419719696045,-2.443767383282669,0.14257611190040284,0.06819430822776758,-0.026114524194873125,0.001329900160792899,1.8968500648382847,-0.07909299016116977,-0.004444566881292578,1.8984983196120135
0.4842808246612549,-2.424466823419488,0.14178946770668324,0.0680255267787004,-0.025580871683200463,0.0005239822077128271,1.9300559863181022,-0.07866441937195989,-0.016878144906717907,1.9316584069647174
0.49421191215515137,-2.4050649503994608,0.14098820286374872,0.06823716999931552,-0.026795363793837984,-0.001205498586273823,1.940187302002716,-0.08012648429345237,0.021164322061512086,1.9418411418902957
0.504150390625,-2.3849368815575325,0.14013244587085097,0.06839240021205151,-0.027911395471038984,-0.001126215455262038,2.0128068841928304,-0.08557569928977493,0.01552302127359878,2.014625214118741
0.5142574310302734,-2.364132077566716,0.13925125530284532,0.06843391748351574,-0.026981512052503574,0.0009385146885155277,2.0804803990816634,-0.08811905680056464,0.00415172714642309,2.082345710763325
0.5241713523864746,-2.34322658080083,0.13821041073427892,0.06839002574565055,-0.02657608788867736,0.0004109000070123897,2.090549676588571,-0.10408445685664014,-0.004389173786518985,2.093139155537376
0.5343427658081055,-2.3217934134064198,0.13714945232993714,0.06821203440389885,-0.02514498537174672,0.0014431297277752242,2.143316739441037,-0.1060958404341783,-0.017799134175169873,2.145941046004198
0.5442745685577393,-2.300124519991629,0.13629464981610992,0.06813804399527978,-0.026166852458599302,-0.0010157172601131625,2.1668893414790613,-0.08548025138272186,-0.007399040861906514,2.168574714320909
0.5542259216308594,-2.2780992039061467,0.1353453161618631,0.06809209854559548,-0.02773433061624368,-0.0015835246730410099,2.2025316085482416,-0.094933365424682,-0.004594544968430925,2.204576564904236
0.5641415119171143,-2.2557688982883635,0.13452541576191843,0.06816557131444606,-0.02771354462387285,3.146283362646685e-05,2.2330305617783264,-0.0819900399944673,0.00734727688505854,2.2345352663348863
0.5742495059967041,-2.233223818347178,0.1332719079920739,0.06792999097964207,-0.02897127880884117,-0.0012857680988770472,2.2545079941185264,-0.12535077698445363,-0.02355803348039892,2.2579900603933023
0.5841312408447266,-2.210065745413228,0.13274854717284976,0.0681940927694336,-0.028298642837564,0.0006848012348447312,2.3158072933950002,-0.05233608192241335,0.026410178979152654,2.3163986024888863
0.5943236351013184,-2.18664835397587,0.13162765740671586,0.06851541450507606,-0.027008280581069712,0.0013094715960054776,2.3417391437358326,-0.11208897661338924,0.0321321735642463,2.34442021744884
0.6042225360870361,-2.1629153024414958,0.13054241276788037,0.06868660452522367,-0.02576349915787502,0.00124766696026077,2.3733051534374106,-0.10852446388354975,0.017119002014760742,2.375785114566084
0.614262580871582,-2.139095486112135,0.12924002726195263,0.06828560242555218,-0.027533030611937945,-0.001831671444457568,2.381981632936059,-0.13023855059277334,-0.04010020996714908,2.3855394735164706
0.624194860458374,-2.1149326798860666,0.1282745013394369,0.06824056040559105,-0.028695493046765014,-0.0011629173498103375,2.416280622606859,-0.09655259225157253,-0.004504201996112511,2.418208934367725
0.6342191696166992,-2.0903560651093605,0.1271245004848494,0.06820328009206776,-0.027636017195944513,0.0010587875126293774,2.457661477670614,-0.11500008545874962,-0.003728031352329131,2.460350576336963
0.644134521484375,-2.0655067848780972,0.12615458736674773,0.06832925174802798,-0.028054184625765963,-0.00039484394113766414,2.4849280231263204,-0.0969913118101684,0.01259716559602192,2.4868201773922336
0.6542966365814209,-2.040514885113008,0.1252190987519034,0.06822106566708436,-0.028475649897744617,-0.0004287285232074868,2.4991899765089087,-0.09354886148443264,-0.010818608094362303,2.500940208834996
0.6642332077026367,-2.015063342489261,0.1242194756251783,0.06830202820325458,-0.029131541413281475,-0.0006557338370594264,2.545154262374716,-0.09996231267251077,0.00809625361702232,2.547116542924375
0.6742045879364014,-1.989481872073142,0.12320323642517139,0.0686194510599651,-0.028173841623980112,0.0009559594554037265,2.5581470416119023,-0.1016239200006902,0.03174228567105197,2.5601647813420203
0.6841371059417725,-1.9635915145382783,0.12230808186878826,0.06866658113482269,-0.02800901113611567,0.00014835163179868934,2.5890357534863684,-0.08951545563831292,0.00471300748575848,2.590582781852157
0.6941924095153809,-1.937461542815826,0.12122128184211044,0.06886670551643866,-0.027539513674476337,0.0004966501046430872,2.612997172245235,-0.10868000266778255,0.02001243816159709,2.615256309645665
0.7042033672332764,-1.9111642928775936,0.12004000019994218,0.06841230826911283,-0.028240578181042978,-0.000724479109184864,2.6297249938232348,-0.11812816421682554,-0.045439724732582176,2.6323768359260136
0.7142369747161865,-1.884366355160893,0.11906375842894988,0.06857579860764956,-0.027226760531171065,0.0010441137219017172,2.6797937716700693,-0.09762417709923005,0.016349033853672867,2.6815713935370056
0.7241640090942383,-1.8575680869082705,0.11814094822027438,0.0685217274244858,-0.028572834052776552,-0.0013527301018946617,2.6798268252622437,-0.09228102086755036,-0.005407118316376469,2.6814152233862387
0.7341134548187256,-1.8303936963293308,0.11706644267265261,0.06869379544925636,-0.028100919128892655,0.0004604788237095024,2.7174390578939667,-0.10745055476217708,0.017206802477055805,2.719562585249023
0.7443130016326904,-1.8030825545288318,0.11599338328941979,0.06876318311583125,-0.02951095001403524,-0.0014108508612988067,2.7311141800498984,-0.10730593832328217,0.006938766657489659,2.7332214013630636
0.7544088363647461,-1.7755532572739854,0.11486241500392687,0.06906275439444595,-0.028511268863927935,0.0010059313540684456,2.752929725484643,-0.1130968285492917,0.029957127861469923,2.7552518879559558
0.7642085552215576,-1.7476690189402058,0.11382316500629909,0.06885933383477136,-0.027516500227236715,0.0010030721674056874,2.788423833377962,-0.1039249997627778,-0.020342055967459416,2.7903598119464705
0.7743024826049805,-1.7198096025812846,0.11267029818853345,0.06862029279977455,-0.02826669587859048,-0.0007486147925937801,2.7859416358921196,-0.11528668177656354,-0.02390410349968064,2.7883259884009814
0.784153938293457,-1.6914117082004319,0.11142963865021563,0.06823336169701655,-0.028580221779040144,-0.0003102468802860308,2.8397894380852717,-0.1240659538317826,-0.03869311027580036,2.8424982697551204
0.7941462993621826,-1.6630916236825817,0.11030426744539021,0.06811043273949348,-0.029584385744003273,-0.001004699266815098,2.8320084517850175,-0.11253712048254205,-0.01229289575230691,2.8342435453694295
0.8253030776977539,-1.5764483799812448,0.10690189069732405,0.06832268092517826,-0.030077359977835463,0.0009872395266968333,2.8590014254347595,-0.12540201622091157,0.002190222627747318,2.861750306422672
0.8280949592590332,-1.5764483799812448,0.10690189069732405,0.06832268092517826,-0.030077359977835463,-0.002489110339954054,2.9031892799810555,-0.11983039500178677,0.01767767455373298,2.9056612533058983
0.8342959880828857,-1.5473869087832115,0.10585531598534498,0.06828404319580669,-0.028500137213966742,0.0015874239773458136,2.906147119803326,-0.10465747119790675,-0.0038637729371571172,2.9080309950581182
0.8443167209625244,-1.5179264262557552,0.10445900828641541,0.0679793279597888,-0.027732594251270476,0.0007733289252157262,2.9460482527456255,-0.13963076989295664,-0.030471523601789674,2.949355363364417
0.8541722297668457,-1.488114274689076,0.10340066822886744,0.06767745218799995,-0.027733311646077334,-1.9601999612888277e-05,2.9812151566679157,-0.10583400575479712,-0.030187577178884817,2.9830931341680587
0.8640666007995605,-1.458287629008422,0.10219819723151821,0.0676254079380371,-0.027629819513101027,0.00010323188727714679,2.9826645680654185,-0.12024709973492281,-0.005204424996284318,2.985087484578556
0.8741741180419922,-1.4283791944163886,0.10104998637064101,0.06756248264420574,-0.028418403598515673,-0.0007854976555109227,2.9908434592033295,-0.11482108608771996,-0.006292529383136736,2.9930466884547093
0.8840782642364502,-1.398010904362405,0.09973700812480246,0.06729351855300839,-0.029428917038906568,-0.001003792517396911,3.036829005398367,-0.13129782458385503,-0.026896409119735176,3.0396660222414713
0.8942861557006836,-1.3677729007299573,0.09867011888671977,0.06727639372123839,-0.02786766760657202,0.0015603384541829758,3.0238003632447663,-0.10668892380826939,-0.0017124831769993465,3.0256819335849805
0.904167652130127,-1.3371532046510595,0.0973135879108291,0.06746539066455007,-0.028639201567083532,-0.0007703180637789371,3.0619696078897807,-0.13565309758906685,0.01889969433116756,3.064973024763221
0.9141771793365479,-1.3064336913926236,0.09618612238090357,0.06764366610895096,-0.027176388136604224,0.0014675492132972376,3.0719513258435915,-0.11274655299255282,0.01782754444008966,3.0740196377973747
0.9242210388183594,-1.2755818517925428,0.09507508617305717,0.06757139453973297,-0.027905270402377235,-0.0007339438314913185,3.0851839600080755,-0.11110362078464026,-0.007227156921799094,3.087183843188249
0.9342255592346191,-1.244511837204515,0.09395816024580053,0.06725820523104774,-0.026174277758424187,0.0017312151455773973,3.107001458802783,-0.11169259272566373,-0.03131893086852355,3.109008411097082
0.9441096782684326,-1.2133056952130066,0.09284823560372324,0.06721879710702813,-0.026316088583676032,-0.0001595614846085605,3.1206141991508396,-0.11099246420772924,-0.003940812401960481,3.1225874378554623
0.9541707038879395,-1.1819260846749922,0.09184714642571405,0.06731114138842696,-0.02574820956323211,0.0005679255080395904,3.1379610538014413,-0.10010891780091874,0.0092344281398829,3.139557511911181
0.9641561508178711,-1.150377343602854,0.0905082080961094,0.06710285090812365,-0.02774613751255763,-0.0019993486152850865,3.154874107213823,-0.1338938329604647,-0.020829048030331088,3.157714076808263
0.9742598533630371,-1.1188697123220235,0.08940558680753512,0.0673903818351238,-0.025540808877571503,0.0022135050263377937,3.150763128083045,-0.11026212885742875,0.028753092700015137,3.152691869870544
0.9841222763061523,-1.0871947813688592,0.08810495063302436,0.06760469411560337,-0.025400546277907603,0.00014621119606513972,3.1674930953164315,-0.13006361745107609,0.02143122804795644,3.1701623071164238
0.9941272735595703,-1.0552879080466846,0.08677055393823262,0.06721835307515446,-0.024896586902237002,0.0005087880670362755,3.1906873322174567,-0.13343966947917396,-0.03863410404489065,3.1934764438404213
1.0040552616119385,-1.023274936124192,0.08558996852362809,0.06728346559783291,-0.026509817397588967,-0.0016299930316173807,3.201297192249264,-0.11805854146045291,0.006511252267844825,3.2034733543943816
1.014115810394287,-0.9911872259242916,0.08456143390857165,0.0674966643253928,-0.025547507038988414,0.000954336546656952,3.208771019990031,-0.1028534615056434,0.02131987275598851,3.210419021447443
1.0242350101470947,-0.9587745974147273,0.08336358839124056,0.06737430293005553,-0.02674653821218471,-0.0011956271040322946,3.241262850956439,-0.11978455173310976,-0.012236139533726431,3.2434754828461654
1.0341172218322754,-0.9262678584902325,0.0823564405108867,0.06758574453732115,-0.02559358906665929,0.0011499919233752263,3.250673892449474,-0.10071478803538592,0.021144160726561945,3.252233728313761
1.0440545082092285,-0.8935579179637222,0.08132705968627968,0.06769699322300715,-0.023631306501496967,0.001958142289507283,3.270994052651033,-0.1029380824607018,0.011124868568600232,3.2726133809692697
1.054060935974121,-0.8607932400664945,0.08023734757628292,0.06781650584962301,-0.021974570265710435,0.001647826772404887,3.27646778972277,-0.10897121099967544,0.01195126266158586,3.2782794118130854
1.0640802383422852,-0.8278979945423164,0.07912656318669252,0.06770785223624931,-0.022639446012651446,-0.0006555655947521313,3.2895245524178107,-0.11107843895904052,-0.010865361337369928,3.2913994288996853
