Time,steering,throttle,x,y,vx,vy,velocity,yaw,yaw_rate
0.0007812976837158203,1.0,0.0,-2.849525617773191,0.9994438091191717,0,0,0.0,-0.0032079022545264215,0
0.011908292770385742,0.99995,0.00299995,-2.8495197279136835,0.9994843351565291,0.0005889859507668405,0.004052603735738014,0.004095180275533475,-0.002885542790264624,0.00032184950589562213
0.02099895477294922,0.999800007,0.0059996,-2.8495305459298716,0.9994659230764682,-0.0010818016188185453,-0.001841208006092554,0.0021354956483631018,-0.0031427079366707273,-0.0002578130466550158
0.03132367134094238,0.999550034,0.00899865,-2.8495560702761598,0.9994697762846233,-0.002552434628810829,0.0003853208155102372,0.002581355199351331,-0.003633154003411647,-0.000488111070198457
0.04190397262573242,0.999200107,0.0119968,-2.849439792124253,0.9993852784379804,0.01162781519066236,-0.008449784664288362,0.014373758971857054,-0.0027877682455711515,0.0008441593438458956
0.05105280876159668,0.99875026,0.014993751,-2.849568804919901,0.9994940461070547,-0.012901279564792034,0.010876766907430557,0.01687445029526879,-0.0034159778494414453,-0.0006272876991218431
0.06111335754394531,0.99820054,0.017989202,-2.849255801132758,0.9990582531724258,0.03130037871432734,-0.04357929346289202,0.05365508854139726,-0.00723735110659455,-0.003757057019426222
0.07099008560180664,0.997551,0.020982854,-2.8492555393158843,0.9990254470498683,2.618168735146753e-05,-0.0032806122557516026,0.003280716728603704,-0.007422585764028011,-0.00017856753336955444
0.08110761642456055,0.996801706,0.023974408,-2.849513974847568,0.9994159300191928,-0.025843553168369837,0.039048296932453486,0.046825834041599464,-0.003585171291885236,0.003785569901501139
0.09117245674133301,0.995952733,0.026963565,-2.8495071055290726,0.9994053770118809,0.0006869318495361654,-0.0010553007311897566,0.0012591802885833355,-0.003011175009057198,0.000578110870530364
0.10163211822509766,0.995004165,0.029950025,-2.8495636657396233,0.9994534741444047,-0.005656021055067129,0.004809713252373893,0.007424548184598422,-0.0033989867497932415,-0.0003905358028127932
0.11284661293029785,0.993956098,0.03293349,-2.8495636657396233,0.9994534741444047,-0.005656021055067129,0.004809713252373893,0.007424548184598422,-0.0033989867497932415,-0.0003905358028127932
0.12200069427490234,0.992808636,0.035913662,-2.84956413471747,0.9994522107146265,0.002030701636313026,-0.004707702042860973,0.005127007671154957,-0.003854708628710871,-0.00041526622421965035
0.13225483894348145,0.991561894,0.038890243,-2.84952828753543,0.9994322010692579,0.003584718204008297,-0.002000964536863492,0.0041053701026745205,-0.004243266829974582,-0.00038403313421458204
0.14154696464538574,0.990215996,0.041862934,-2.8495437157852352,0.9993623167778781,-0.0015428249805271577,-0.00698842913797737,0.007156706696314286,-0.004426181656499793,-0.0001895282689794026
0.1512765884399414,0.988771078,0.04483144,-2.8495611643107166,0.9992783267211539,-0.0017448525481356114,-0.008399005672421467,0.008578333561951488,-0.005358158575628758,-0.0009199621912181695
0.16094636917114258,0.987227283,0.047795462,-2.8494526844432144,0.9991382263036787,0.010847986750217586,-0.014010041747525293,0.01771891888068507,-0.0052244671266556755,0.00014843118387797112
0.1711740493774414,0.985584767,0.050754705,-2.8491678249960843,0.9986474848989733,0.028485944713008138,-0.04907414047053971,0.05674257933082369,-0.008822050288175466,-0.003565587593406865
0.18180632591247559,0.983843693,0.053708872,-2.8493634208823617,0.9987607002275692,-0.019559588627737767,0.01132153285959836,0.022599880831041873,-0.010027207662594063,-0.0012006087844019862
0.19122028350830078,0.982004235,0.056657668,-2.849629420699834,0.9990743077945066,-0.026599981747210677,0.031360756693732394,0.04112245237525873,-0.0058600804752704716,0.00412372636552669
0.20293760299682617,0.980066578,0.059600799,-2.8495897558974645,0.9990398709101355,0.003966480236927694,-0.0034436884371102927,0.005252804538703597,-0.006673849155346356,-0.000814688642167393
0.2111341953277588,0.978030915,0.06253797,-2.8496432917071313,0.9991181194661326,-0.0053535809666716005,0.00782485559971402,0.009480991209946579,-0.006586304528105913,9.172275104430631e-05
0.221405029296875,0.975897449,0.065468887,-2.849612745237461,0.9990642255387585,0.0030546469670156284,-0.005389392737409349,0.0061948706339308175,-0.006811981103742097,-0.00021789341653089136
0.23180675506591797,0.973666395,0.068393257,-2.8495346101004926,0.9990496128801739,0.00781351369685268,-0.0014612658584600702,0.007948980701952012,-0.006210456582510952,0.0005992883225617441
0.2418522834777832,0.971337975,0.071310788,-2.849636902470421,0.9990255471051729,-0.010229236992831403,-0.002406577500102536,0.010508515819063613,-0.006924114325855527,-0.0007251506005009096
0.25258946418762207,0.968912422,0.074221188,-2.849666360360774,0.9991020348029963,-0.0029457890353246086,0.007648769782342413,0.008196423135972977,-0.0067275948037668724,0.00020410894502302405
0.2614274024963379,0.966389978,0.077124166,-2.8495463060804824,0.9989845956288872,0.012005428029171483,-0.011743917410911298,0.016794341258826492,-0.006356018029447979,0.00035960280682589135
0.2719461917877197,0.963770896,0.080019431,-2.8496154810178917,0.999033175448308,-0.006917493740932201,0.004857981942085754,0.008452911226640646,-0.006540413321649527,-0.00018550895297807972
0.28362512588500977,0.961055438,0.082906695,-2.8477448338060753,0.9977646469198113,0.18706472118164008,-0.1268528528496793,0.226019592484517,-0.008674778041405592,-0.0017523994900868244
0.2929201126098633,0.958243876,0.085785668,-2.849519982621666,0.9990437128638139,-0.17751488155908213,0.1279065944002622,0.21879586391430744,-0.006377759726569631,0.0026990748750235338
0.3079657554626465,0.955336489,0.088656062,-2.849519982621666,0.9990437128638139,-0.17751488155908213,0.1279065944002622,0.21879586391430744,-0.006377759726569631,0.0026990748750235338
0.31279611587524414,0.95233357,0.091517591,-2.849519982621666,0.9990437128638139,-0.17751488155908213,0.1279065944002622,0.21879586391430744,-0.006377759726569631,0.0026990748750235338
0.3215768337249756,0.949235418,0.094369968,-2.849519982621666,0.9990437128638139,-0.17751488155908213,0.1279065944002622,0.21879586391430744,-0.006377759726569631,0.0026990748750235338
0.3316628932952881,0.946042344,0.097212909,-2.8496221209508046,0.9990536735707591,-0.003153365581187728,0.001141258668846401,0.0033535333363240148,-0.007335958323728131,-0.0006712608146967619
0.3425025939941406,0.942754666,0.100046128,-2.849594544622899,0.9990269336093353,0.003083850385632303,-0.006128953375839075,0.006861064253027638,-0.007090614131299928,-0.00032838560866514687
0.3526895046234131,0.939372713,0.102869342,-2.8494949269791796,0.9990156874266332,0.009961764371935189,-0.0011246182702095986,0.010025044421629587,-0.006438564187656767,0.0006563900793113955
0.3616750240325928,0.935896824,0.10568227,-2.849591542179034,0.9990714748184306,-0.009661519985426636,0.0055787391797457175,0.011156491350977163,-0.0061788763757123265,0.00026155495352243456
0.3725168704986572,0.932327346,0.10848463,-2.8496008706956437,0.9990599176763345,-0.0009328516609841131,-0.001155714209610803,0.001485223065972631,-0.006525400232980602,-0.0003462471918399277
0.3819139003753662,0.928664636,0.111276141,-2.8494688178579204,0.998934333659768,0.013205283772332876,-0.012558401656648233,0.01822341822155062,-0.006921838597271648,-0.0004036295107635931
0.39119863510131836,0.92490906,0.114056525,-2.849624553798503,0.9990779705484465,-0.015573594058260198,0.014363688867846669,0.02118613673570006,-0.006982216732942686,-6.194095629216586e-05
0.408250093460083,0.921060994,0.116825503,-2.849623254631261,0.9990865077372442,0.002052606092783904,0.0012018027338633885,0.002378554515510443,-0.006768951962359872,0.0005654426277915842
0.4131343364715576,0.917120823,0.119582798,-2.849623254631261,0.9990865077372442,0.002052606092783904,0.0012018027338633885,0.002378554515510443,-0.006768951962359872,0.0005654426277915842
0.4228544235229492,0.91308894,0.122328136,-2.8495459500504263,0.9990343114522406,0.007730458083488045,-0.005219628500352513,0.00932762048232334,-0.0064643739623451235,0.00031128959755727425
0.43123340606689453,0.90896575,0.125061241,-2.849646211649045,0.9990571140941328,-0.010026159861853401,0.0022802641892138986,0.010282192681916222,-0.007563379809117833,-0.001086825729963426
0.44132280349731445,0.904751663,0.12778184,-2.849571029979123,0.9991063918563926,0.0075181669922042005,0.004927776225982505,0.008989205385128717,-0.0067661818804104846,0.0007899056121965147
0.45221662521362305,0.900447102,0.13048966,-2.84947019653572,0.9990547805009563,0.010083344340294786,-0.005161135543629847,0.011327451310187753,-0.006313647259469506,0.000440554784091343
0.46227264404296875,0.896052498,0.133184432,-2.8493457712213544,0.999047446308547,0.012442531436551718,-0.0007334192409280682,0.012464128221923155,-0.006732674124839971,-0.0003994585511169167
0.4722633361816406,0.891568288,0.135865886,-2.8493448291650516,0.9990831265070123,9.42056302744021e-05,0.003568019846522663,0.003569263274956753,-0.006446341174200955,0.00026918873999296324
0.4823954105377197,0.886994923,0.138533753,-2.849153579024499,0.9989805874310546,0.01912501405527678,-0.010253907595769718,0.021700432797460936,-0.006360064597854041,9.731316225276306e-05
0.4923675060272217,0.882332859,0.141187766,-2.849048288797276,0.9990167913265051,0.010529022722272074,0.0036203895450559465,0.011134071130726264,-0.0069110270175285074,-0.000544430475776866
0.5020933151245117,0.877582562,0.143827662,-2.8488641166894086,0.9991195210391837,0.018417210786747518,0.010272971267855091,0.021088565428536512,-0.006190602820917241,0.0007058327870093959
0.5122337341308594,0.872744508,0.146453174,-2.8485720620399,0.9990592642140145,0.029205464950843307,-0.006025682516919151,0.029820597458629867,-0.006135062894603402,5.17790666511276e-05
0.5222365856170654,0.86781918,0.149064041,-2.848319236519663,0.9991104381518084,0.025282552023719873,0.005117393779396906,0.025795254523371388,-0.005679245358910479,0.00046800637172105284
0.5322959423065186,0.862807071,0.151660002,-2.848095062675046,0.9990795434245527,0.022417384461714818,-0.0030894727255703636,0.02262927236625995,-0.004482664005260417,0.0011810379402996249
0.5420882701873779,0.857708681,0.154240797,-2.847787932956166,0.9992169991058346,0.030712971887991714,0.01374556812818728,0.03364858519104789,-0.00363218857202358,0.0008408202860811563
0.5524566173553467,0.852524522,0.156806169,-2.8475660232347413,0.9993288311159719,0.022190972142466237,0.011183201013731381,0.024849612261386194,-0.0030425148399585472,0.0005806622543709616
0.5622684955596924,0.847255111,0.159355859,-2.8475660232347413,0.9993288311159719,0.022190972142466237,0.011183201013731381,0.024849612261386194,-0.0030425148399585472,0.0005806622543709616
0.5722987651824951,0.841900975,0.161889615,-2.8467596553597545,0.9993244338483624,0.05610007105416592,-0.007074186124789161,0.05654433730808616,-0.003326979406685531,-0.0009897386722670068
0.58231520652771,0.83646265,0.164407181,-2.8467277214448092,0.9994795498201589,0.0031933914945270203,0.015511597179640457,0.015836899832377148,-0.0016591441849507541,0.0017049526676449908
0.5923757553100586,0.830940679,0.166908307,-2.8467304855296467,0.9995133924291085,-0.00027640848374588245,0.0033842608949674613,0.0033955299225735974,-0.0024783223890030843,-0.0008188773132462824
0.6020567417144775,0.825335615,0.169392742,-2.8463254435471925,0.9989190439762512,0.040504198245416845,-0.05943484528573295,0.07192420253046287,-0.007770298486588861,-0.005255800690474039
0.6124646663665771,0.819648018,0.171860238,-2.846314398220173,0.9987907358675822,0.001104532701967642,-0.012830810866903963,0.012878264634335512,-0.008548273793275706,-0.0007828419116697097
0.622147798538208,0.813878457,0.174310548,-2.8464218206763796,0.9988011998262728,-0.010742245620676272,0.0010463958690642983,0.010793089700810114,-0.007673743989846367,0.0008700572767494842
0.6320610046386719,0.808027508,0.176743427,-2.8472801507659353,0.9993549284551596,-0.08583300895557144,0.05537286288868071,0.10214430660029879,-0.0022209830499807784,0.005415029918817191
0.6421282291412354,0.802095758,0.179158632,-2.8472801507659353,0.9993549284551596,-0.08583300895557144,0.05537286288868071,0.10214430660029879,-0.0022209830499807784,0.005415029918817191
0.6521415710449219,0.796083799,0.181555922,-2.8477603939396823,0.9992704471973497,-0.03836082248609429,-0.005612234348073564,0.03876918720049898,-0.004403220742697937,-0.0017722924922684094
0.6623904705047607,0.789992231,0.183935056,-2.8477603939396823,0.9992704471973497,-0.03836082248609429,-0.005612234348073564,0.03876918720049898,-0.004403220742697937,-0.0017722924922684094
0.6720435619354248,0.783821666,0.186295796,-2.846810909261627,0.9993619299151602,0.06341499723694355,-0.0035441507366118508,0.06351395814311515,-0.0031128403340775447,0.001437586884619153
0.6823327541351318,0.777572719,0.188637907,-2.8457359082136358,0.9990490979965132,0.10750010479911865,-0.03128319186469497,0.11195941508004054,-0.00686402114996667,-0.0036906397119764265
0.6922812461853027,0.771246015,0.190961155,-2.844958518968481,0.9994053191183921,0.07773892451545805,0.03562211218789413,0.08551184281458914,-0.0021476227023320468,0.0046820016070083514
0.7023413181304932,0.764842187,0.193265306,-2.844958518968481,0.9994053191183921,0.07773892451545805,0.03562211218789413,0.08551184281458914,-0.0021476227023320468,0.0046820016070083514
0.7122964859008789,0.758361876,0.195550131,-2.8430272265394594,0.9994550077113804,0.19312924290217914,0.004968859298826178,0.19319315212165375,-0.0030235663654064222,-0.0008432699885902603
0.7223687171936035,0.751805729,0.197815402,-2.8398819346079307,1.0001211029656314,0.20114296933146925,0.019019299878375584,0.20204016402523522,0.0006498280611795289,0.0011254295866240114
0.7329635620117188,0.745174402,0.200060891,-2.8398819346079307,1.0001211029656314,0.20114296933146925,0.019019299878375584,0.20204016402523522,0.0006498280611795289,0.0011254295866240114
0.7421219348907471,0.738468559,0.202286373,-2.837576705823434,1.000241277522861,0.23052287844969044,0.012017455722967973,0.23083590866843973,0.002774027758793861,0.002123188397034471
0.7519488334655762,0.731688869,0.204491628,-2.832448100433558,1.0012735978254077,0.31164844647766365,0.017337020532037783,0.312130303675996,0.010947659336949092,0.00011341448899773676
0.7620468139648438,0.724836011,0.206676434,-2.8296683324272602,1.0020696503403212,0.2779768006297978,0.07960525149135478,0.2891506488897789,0.016865046397756434,0.005916949053563854
0.7721190452575684,0.71791067,0.208840572,-2.8263268369604,1.002603481391206,0.3341495466860245,0.053383105088467,0.33838687246901583,0.020586483535381235,0.003720819558482676
0.7821753025054932,0.710913538,0.210983826,-2.8223807060375927,1.002687104631466,0.3946130922807267,0.008362324026012224,0.39470168616624046,0.02212083008745985,0.0015578437328885005
0.7921111583709717,0.703845316,0.213105982,-2.8184674807366723,1.0034768388397357,0.391322530092042,0.07897342082696657,0.3992118782736183,0.029046854386059227,0.006928657037407236
0.8022031784057617,0.696706709,0.215206827,-2.814548655459222,1.0043969394508343,0.3918825277450466,0.09201006110985954,0.4025391495212451,0.0347111515278019,0.005653542383176548
0.8123788833618164,0.689498433,0.217286152,-2.809771728764819,1.005048483472551,0.4776926694402661,0.06515440217167434,0.48211552822878007,0.03976546324773867,0.005052212965061775
0.8223111629486084,0.682221207,0.219343749,-2.8050317811617664,1.0056233876555465,0.4739947603052741,0.05749041829954393,0.47746851309077,0.04441721800874759,0.004652598109735963
0.832298755645752,0.67487576,0.221379411,-2.799836735602387,1.0065961793057883,0.5195045559379441,0.09727916502417777,0.5285340287891421,0.049523041462390026,0.0051040199770532296
0.8423020839691162,0.667462826,0.223392936,-2.7943845977897532,1.0080827993256416,0.5452137812633762,0.14866200198533353,0.565118092184099,0.05690096220386364,0.00738915773330255
0.8521907329559326,0.659983146,0.225384122,-2.7887872362386323,1.0092678131780908,0.5597361551120894,0.11850138524491793,0.57214258856043,0.06421701443252101,0.007314939680390856
0.8623673915863037,0.652437468,0.227352769,-2.782640320932399,1.010849418331006,0.6146915306233236,0.15816051529151665,0.6347128692702886,0.07252210724001013,0.008300213252321761
0.8722531795501709,0.644826547,0.229298681,-2.7761317737002393,1.0121949798886352,0.6508547232159767,0.13455615576292157,0.6646181082292607,0.08079088752327711,0.008267102282447342
0.8820393085479736,0.637151144,0.231221664,-2.7689722763164384,1.0133413742036226,0.715949738380095,0.114639431498742,0.7250698084604552,0.08489796086490098,0.004118628612007487
0.8923795223236084,0.629412027,0.233121524,-2.76192606998673,1.014802717805057,0.7046206329708316,0.14613436014343506,0.7196148189293676,0.0920401682997637,0.00714128167721369
0.9023504257202148,0.621609968,0.234998073,-2.7545979370298856,1.0166089164530747,0.7328132956844424,0.18061986480177872,0.7547442360779623,0.10111075713744763,0.009067150271900389
0.9122459888458252,0.613745749,0.236851122,-2.746890791663947,1.0185672378993982,0.770714536593875,0.19583214463234633,0.7952050841062421,0.11100536351925212,0.009893348524191041
0.9223124980926514,0.605820157,0.238680486,-2.7390771130338023,1.0203680284399474,0.7813678630144594,0.18007905405492686,0.801850486724988,0.11822285529615917,0.0072147460320579546
0.9322969913482666,0.597833982,0.240485982,-2.7309195556612655,1.0225501570760362,0.8157557372536761,0.21821286360887981,0.8444372544521447,0.1260645491059309,0.007838704553598924
0.942237138748169,0.589788025,0.24226743,-2.722366460834347,1.0248151996729336,0.855309482691835,0.22650425968973043,0.8847929084481675,0.13260720417146835,0.006542344484702013
0.9523417949676514,0.581683089,0.244024651,-2.713720782358572,1.027318996630896,0.8645678475775131,0.2503796957962434,0.9000930813709399,0.14243093634617054,0.009821156663848673
0.9619555473327637,0.573519986,0.24575747,-2.704609894216066,1.029984216409896,0.9110888142505935,0.26652197790000276,0.9492717167156525,0.15318614583038642,0.010755150146641556
0.9720630645751953,0.565299531,0.247465714,-2.6951101645157234,1.0322307986851584,0.9499729700342741,0.2246582275262421,0.9761761946446822,0.16280000085910673,0.009608624472906661
0.9819982051849365,0.557022547,0.249149211,-2.6855909824699595,1.0351675382155303,0.9519182045763852,0.2936739530371879,0.9961890678462684,0.17120932494351454,0.008410574782857625
0.9927487373352051,0.548689861,0.250807794,-2.6756790968662685,1.0383733749757054,0.9911885603691051,0.32058367601750515,1.0417430851872624,0.18491210709034936,0.01369572390869829
1.0025358200073242,0.540302306,0.252441295,-2.6658463004727784,1.0422116720797268,0.9832796393490106,0.3838297104021393,1.0555397177490342,0.19848691590255105,0.013582632803223482
1.0201075077056885,0.531860721,0.254049553,-2.645273798929198,1.0495915727428358,1.0472263785240354,0.40029990779526514,1.1211258199049134,0.21952250206416438,0.011316346731922717
1.0229945182800293,0.523365951,0.255632407,-2.645273798929198,1.0495915727428358,1.0472263785240354,0.40029990779526514,1.1211258199049134,0.21952250206416438,0.011316346731922717
1.0311975479125977,0.514818845,0.257189697,-2.6345148714220263,1.0535566275354982,1.0758927507171556,0.39650547926624036,1.146630631953411,0.23190124907098827,0.012378394632084129
1.0414748191833496,0.506220257,0.258721268,-2.623666557306079,1.0580958293198155,1.0848314115947222,0.4539201784317326,1.175968843111965,0.2439173215676554,0.012019806247636163
1.0511415004730225,0.497571048,0.260226968,-2.623666557306079,1.0580958293198155,1.0848314115947222,0.4539201784317326,1.175968843111965,0.2439173215676554,0.012019806247636163
