Time,steering,throttle,x,y,vx,vy,velocity,yaw,yaw_rate
0.0033850669860839844,1.0,0.0,-2.832916551067653,0.9267368639076716,-0.007355541253595277,0.013052850873063182,0.014982686776668872,-0.030801363658560295,-0.0013151553552414005
0.014661312103271484,0.99995,0.00299995,-2.8320471068931172,0.9265327452697091,0.08694441745356052,-0.020411863796254703,0.08930831937717702,-0.02399490882116749,0.006847554670890832
0.025226593017578125,0.999800007,0.0059996,-2.8322456068054844,0.9264617651772351,-0.019849991236720044,-0.007098009247397119,0.021080889150460365,-0.026095372705849006,-0.0020741061822132324
0.03585696220397949,0.999550034,0.00899865,-2.8322095163375494,0.9265503895955843,0.0036090467935068204,0.008862441834922574,0.009569121905123148,-0.02559395430990404,0.0004954065896994746
0.04536008834838867,0.999200107,0.0119968,-2.8327686682773248,0.9265077876584267,-0.05591519397754041,-0.004260193715766025,0.0560772517875281,-0.029449239084667497,-0.0038444685152375945
0.05521273612976074,0.99875026,0.014993751,-2.832751826346101,0.9266935932766953,0.0016841931223865458,0.018580561826864184,0.0186567356275265,-0.029093010714983342,0.00022733657814910896
0.06535530090332031,0.99820054,0.017989202,-2.832751826346101,0.9266935932766953,0.0016841931223865458,0.018580561826864184,0.0186567356275265,-0.029093010714983342,0.00022733657814910896
0.07692790031433105,0.997551,0.020982854,-2.832751826346101,0.9266935932766953,0.0016841931223865458,0.018580561826864184,0.0186567356275265,-0.029093010714983342,0.00022733657814910896
0.0852346420288086,0.996801706,0.023974408,-2.8325285951339136,0.9265662986616725,0.002394260550397931,0.0028673919053368024,0.0037355615269973564,-0.02886706564589523,0.0008480629774938281
0.09508562088012695,0.995952733,0.026963565,-2.832938617193323,0.9267729927399571,-0.030985088355173218,0.010115565241408664,0.03259448359049559,-0.03074103307893645,-0.002292121957628383
0.10534906387329102,0.995004165,0.029950025,-2.8329936959742006,0.926850438791235,-0.00550787808775155,0.007744605127790738,0.00950345356251801,-0.028801579669168728,0.00180377818826086
0.11514496803283691,0.993956098,0.03293349,-2.8326524565069295,0.9266903153068784,0.03412394672710484,-0.016012348435656687,0.03769401865892208,-0.027531089338744496,0.0013204947862986158
0.12513375282287598,0.992808636,0.035913662,-2.8326092739829587,0.9266203376175661,0.004318252397084166,-0.006997768931227277,0.008222899353620527,-0.027974833653593403,-0.00043571330376059546
0.13389110565185547,0.991561894,0.038890243,-2.8326092739829587,0.9266203376175661,-0.020887318391249465,0.016213966761857712,0.026441875647012163,-0.027974833653593403,-0.0023020374522102335
0.14379644393920898,0.990215996,0.041862934,-2.832628357143864,0.9266841188706312,0.018979002300723025,-0.009835841455352323,0.021376302427353455,-0.03020297988090465,0.00011705629399742447
0.15416598320007324,0.988771078,0.04483144,-2.8327828795749106,0.9266974534079031,-0.01545224310466331,0.0013334537271925129,0.015509671686021546,-0.02837363274690603,0.0017605273841024233
0.16364550590515137,0.987227283,0.047795462,-2.8327828795749106,0.9266974534079031,-0.01545224310466331,0.0013334537271925129,0.015509671686021546,-0.02837363274690603,0.0017605273841024233
0.17344188690185547,0.985584767,0.050754705,-2.8327828795749106,0.9266974534079031,-0.01545224310466331,0.0013334537271925129,0.015509671686021546,-0.02837363274690603,0.0017605273841024233
0.18350791931152344,0.983843693,0.053708872,-2.832816996860516,0.9267074846718044,-0.018831205673253137,0.002906281387859977,0.01905415384145364,-0.02816672308510434,-0.0007413066401912639
0.19358086585998535,0.982004235,0.056657668,-2.83297515733037,0.9267674097890064,-0.02998738141677393,0.0056127497498059675,0.030508130129344623,-0.03031876909021931,-0.0025479933998042805
0.20380830764770508,0.980066578,0.059600799,-2.832833528659239,0.9266702760311232,0.014162867113087785,-0.009713375788322764,0.01717371462637476,-0.026745345260067534,0.0034700752143768596
0.21373558044433594,0.978030915,0.06253797,-2.8328467928391805,0.9266459735878916,-0.001326417994151896,-0.002430244323159414,0.002768658910999782,-0.02711067341236058,-0.0003468663097118788
0.22442150115966797,0.975897449,0.065468887,-2.832883482088349,0.9265260177106086,-0.0036689249168553317,-0.011995587728297341,0.012544127510225638,-0.028321913610923708,-0.0011843656184808082
0.2337052822113037,0.973666395,0.068393257,-2.832893323632525,0.9266459886507469,-0.000984154417604799,0.011997094013826981,0.012037392769794222,-0.02760865176401924,0.0006967015104856641
0.24440503120422363,0.971337975,0.071310788,-2.8328985250092726,0.9266366090512437,-0.0005201376747532294,-0.0009379599503200886,0.0010725260225757506,-0.02757372289079515,4.7113839557645966e-05
0.2546732425689697,0.968912422,0.074221188,-2.833159249411087,0.926731464056984,-0.0005201376747532294,-0.0009379599503200886,0.0010725260225757506,-0.029427797824605306,4.7113839557645966e-05
0.2640399932861328,0.966389978,0.077124166,-2.833159249411087,0.926731464056984,-0.0005201376747532294,-0.0009379599503200886,0.0010725260225757506,-0.029427797824605306,4.7113839557645966e-05
0.274644136428833,0.963770896,0.080019431,-2.8327572216988015,0.926591625185251,0.033441712947945845,-0.014904835623197332,0.036612870549129865,-0.02754336750506579,0.0016805768935436595
0.2846643924713135,0.961055438,0.082906695,-2.832966231738938,0.9266907846684947,-0.020901004013662572,0.009915948324379364,0.023133914496922064,-0.029239095898167117,-0.0016679859185840817
0.2950758934020996,0.958243876,0.085785668,-2.8328105273003055,0.9266280725567514,0.015570443863266448,-0.006271211174335711,0.01678591110700414,-0.02662864380821751,0.0025220321282893253
0.30467772483825684,0.955336489,0.088656062,-2.832716133949254,0.9266106943872181,0.009439335105154711,-0.0017378169533288634,0.009597971399763771,-0.028152882165992058,-0.001424617945440497
0.31467437744140625,0.95233357,0.091517591,-2.8328923722685975,0.9266535206163422,-0.017623831934354683,0.004282622912410439,0.018136711693696926,-0.028640778420257584,-0.0005072992729008423
0.32529330253601074,0.949235418,0.094369968,-2.8327344919755126,0.9266117595980091,0.01578802930848333,-0.004176101833308632,0.016331004132253853,-0.02724187749327059,0.0013587611732436393
0.33492493629455566,0.946042344,0.097212909,-2.8329072942770557,0.9266771844417563,-0.01728023015430402,0.006542484374716384,0.0184772956890105,-0.027774552103291533,-0.000543796989038434
0.3449273109436035,0.942754666,0.100046128,-2.8329493947046633,0.9267176800375081,-0.004210042760766086,0.00404955957518105,0.00584152315756939,-0.02777140552949669,1.2443426391544186e-05
0.35488200187683105,0.939372713,0.102869342,-2.832851546111151,0.9266473335619023,0.009784859351213981,-0.007034647560577589,0.012051130188682715,-0.027217344273080417,0.000571288839498661
0.36513686180114746,0.935896824,0.10568227,-2.832838343046794,0.9266423311657381,0.0013203064357369954,-0.0005002396164188738,0.0014118954487083776,-0.027652169578641327,-0.0004139500871422114
0.3749516010284424,0.932327346,0.10848463,-2.832838343046794,0.9266423311657381,0.0013203064357369954,-0.0005002396164188738,0.0014118954487083776,-0.027652169578641327,-0.0004139500871422114
0.38546013832092285,0.928664636,0.111276141,-2.8328486261022987,0.9265869393017155,0.01165514809429169,-0.009775493891495124,0.015211928146113815,-0.027748195628561106,0.0006011585569513331
0.3948225975036621,0.92490906,0.114056525,-2.8331016224974404,0.9267545326901427,-0.025299639514164696,0.016759338842720073,0.030347111855855237,-0.028936464978070637,-0.001233493851739151
0.40495967864990234,0.921060994,0.116825503,-2.833139146045079,0.9267810824424101,-0.0037523547638862453,0.002654975226734635,0.00459663569674979,-0.028947106888441786,1.2309554499634549e-06
0.4151291847229004,0.917120823,0.119582798,-2.832958032618889,0.9267209710992048,0.018111342619020476,-0.006011134320527134,0.019082831741724465,-0.028591486258168153,0.00035127433594129903
0.42488741874694824,0.91308894,0.122328136,-2.8328797514595063,0.9266794551964851,0.00782811593826871,-0.004151590271972427,0.00886087472709736,-0.028163547813036472,0.00044471326315830435
0.43483805656433105,0.90896575,0.125061241,-2.8330559385026333,0.9267398677196624,-0.017618704312694078,0.006041252317734447,0.018625667000799644,-0.02985664203263193,-0.0016736096029913506
0.44497156143188477,0.904751663,0.12778184,-2.8329124887859467,0.9267376989686681,0.014344971668656115,-0.00021687509943468797,0.014346610992959327,-0.02848780214528603,0.0013301980624679432
0.45471620559692383,0.900447102,0.13048966,-2.832909855185699,0.9266881701617238,0.0002633600247659018,-0.0049528806944310055,0.004959877586787002,-0.029395452180714154,-0.0008776607445608712
0.46494388580322266,0.896052498,0.133184432,-2.832979757663721,0.9265607537105689,-0.006990247802196592,-0.012741645115488254,0.01453317186938763,-0.029877244854334295,-0.0003226108872874748
0.47477006912231445,0.891568288,0.135865886,-2.832729151952519,0.926595452388008,0.025060571120194552,0.0034698677439104486,0.025299648357844016,-0.028979332851594874,0.0008325494092675364
0.48488616943359375,0.886994923,0.138533753,-2.8330766529290137,0.9267587053740065,-0.0347500976494608,0.016325298599850768,0.038393810191505486,-0.02977301646355323,-0.0008781193743936843
0.49477458000183105,0.882332859,0.141187766,-2.832533282400715,0.9266307292352126,0.054337052829867005,-0.012797613879389491,0.055823778367660684,-0.02780000888178658,0.0019525883598428108
0.5047986507415771,0.877582562,0.143827662,-2.831945464814667,0.9266225003247589,0.05878175860480894,-0.0008228910453711435,0.05878751818495642,-0.025776692617972125,0.0020080976138168224
0.5148947238922119,0.872744508,0.146453174,-2.831642740225645,0.9269123996769736,0.030272458902169674,0.02898993522146842,0.041914652713919594,-0.02655634508479984,-0.0008064108275876325
0.5249440670013428,0.86781918,0.149064041,-2.8308963595451164,0.9269337163016697,0.07463806805287909,0.00213166246960661,0.07466850197741039,-0.026336178113176588,0.0004130971562999052
0.534820556640625,0.862807071,0.151660002,-2.8293933742529584,0.9268552508876023,0.15029852921579767,-0.0078465414067308,0.15050320958863145,-0.02500410828177782,0.0015286436698391328
0.5448238849639893,0.857708681,0.154240797,-2.8290741829326467,0.9270627147398154,0.031919132031177355,0.02074638522130412,0.03806893076216455,-0.02360894626679666,0.0012025657605392013
0.5548117160797119,0.852524522,0.156806169,-2.8283185897627385,0.9273651343657375,0.0755593169908142,0.030241962592214566,0.08138664930777804,-0.023970329754631876,-0.0003411141695072796
0.5649340152740479,0.847255111,0.159355859,-2.8269484810480456,0.9274477517815684,0.1370108714692897,0.008261741583082127,0.13725973653901516,-0.02048858122789165,0.0034883497266869714
0.5747616291046143,0.841900975,0.161889615,-2.8259088101891825,0.9277567591674042,0.10396708588631398,0.030900738583583554,0.1084620237350528,-0.020264821225287315,0.00020865690933795746
0.5846419334411621,0.83646265,0.164407181,-2.824424195037807,0.9278071002136924,0.14846151513756567,0.005034104628820479,0.14854684004163654,-0.01930185226610595,0.0010833880385975212
0.5948441028594971,0.830940679,0.166908307,-2.822489794010311,0.9279942104229517,0.193440102749598,0.018711020925932242,0.194342933125611,-0.014797631610184993,0.004358741615111934
0.6048171520233154,0.825335615,0.169392742,-2.8210380546422855,0.9283139494806859,0.145173936802534,0.03197390577341919,0.1486532965566308,-0.012763513401778451,0.002005330596195799
0.614621639251709,0.819648018,0.171860238,-2.819228279762759,0.9286277231275375,0.18097748795264934,0.03137736468515895,0.18367740786562944,-0.013870820346135584,-0.0008854458480227008
0.624638557434082,0.813878457,0.174310548,-2.8169068019285906,0.9287969718236033,0.23214778341684728,0.016924869606582682,0.2327639245169991,-0.009634627555383841,0.004161791307705965
0.6349024772644043,0.808027508,0.176743427,-2.814860853892645,0.9294177412199143,0.20459480359455995,0.06207693963109495,0.21380500483351453,-0.006611704186971043,0.002874796342594453
0.6451141834259033,0.802095758,0.179158632,-2.8125163440220713,0.9296198141107873,0.23445098705736633,0.02020728908730396,0.23532020708904544,-0.0028307301605568673,0.003797827616232033
0.6548840999603271,0.796083799,0.181555922,-2.809965921865726,0.9297539057730995,0.25504221563452667,0.013409166231215242,0.2553944742839687,-0.00048218159215650676,0.0023813991850283643
0.6649491786956787,0.789992231,0.183935056,-2.807586851196994,0.9303568969743474,0.23790706687321084,0.06029912012479599,0.24542973812486332,0.0006960622310932483,0.0012146508043996975
0.6748208999633789,0.783821666,0.186295796,-2.8047923328346385,0.9305328507971449,0.2794518362355447,0.017595382279744776,0.28000522540300576,0.003068838214914137,0.002501689898636117
0.6848208904266357,0.777572719,0.188637907,-2.8021125926259614,0.9311437958361002,0.2679740208677117,0.06109450389553128,0.2748501669387339,0.008032495548948847,0.004954141025761795
0.6947689056396484,0.771246015,0.190961155,-2.7986758993484147,0.931332847472356,0.34366932775466985,0.018905163625582144,0.3441889191288074,0.012237517766898708,0.004160562712398885
0.7054030895233154,0.764842187,0.193265306,-2.79536291240206,0.9318205466643544,0.33129869463546235,0.048769919199842526,0.3348691238169331,0.017106914656319253,0.004691585646396048
0.7151451110839844,0.758361876,0.195550131,-2.7918907397323025,0.9323309309849996,0.3472172669757523,0.051038432064520745,0.35094836092182496,0.02065441544422414,0.0035717031087537945
0.7246506214141846,0.751805729,0.197815402,-2.788108918625998,0.9328864203933779,0.3781821106304317,0.055548940837824023,0.38223996864416493,0.024777678305534255,0.004109633620437417
0.7346680164337158,0.745174402,0.200060891,-2.784483343917117,0.9335585154092053,0.3625574708881363,0.06720950158274341,0.3687343716007535,0.02906899027695792,0.00432276438910725
0.7448134422302246,0.738468559,0.202286373,-2.780346201933223,0.9342368222462978,0.41371419838940326,0.06783068370924683,0.41923792719820857,0.03227282400534649,0.0031905189151205404
0.75467848777771,0.731688869,0.204491628,-2.776361826193389,0.9351657256367267,0.3984375739833901,0.09289033904289479,0.40912237221798736,0.036860475948354884,0.00456283716658766
0.7647974491119385,0.724836011,0.206676434,-2.7714628663247005,0.9356792492485282,0.48989598686883795,0.051352361180145856,0.4925800878526951,0.04205007891794089,0.005198537722919569
0.774813175201416,0.71791067,0.208840572,-2.7671197813118815,0.93672698821427,0.43430850128189924,0.10477389657418401,0.446767773780817,0.048114114580828184,0.005815035198152289
0.7849788665771484,0.710913538,0.210983826,-2.7620657177887953,0.9373593768069687,0.5054063523086239,0.06323885926986517,0.5093473611158328,0.047882771301098734,-8.783951916226473e-05
0.7948110103607178,0.703845316,0.213105982,-2.75730313620329,0.9381354796186694,0.47625815855054654,0.07761028117007074,0.4825403499493643,0.052390933122383194,0.0043626818693225725
0.8046352863311768,0.696706709,0.215206827,-2.751757187777345,0.9389531523203002,0.5545948425945024,0.08176727016308005,0.560590158584989,0.05916563448282919,0.006748529713723591
0.8148157596588135,0.689498433,0.217286152,-2.746108920977936,0.939724442147334,0.5648266799408663,0.07712898270337831,0.5700684681210494,0.06427081969073188,0.005121572144677938
0.8248610496520996,0.682221207,0.219343749,-2.7403414438775693,0.9407161002036772,0.5767477100366847,0.09916580563432698,0.5852108833913334,0.07036077159034201,0.006089614523370664
0.8348660469055176,0.67487576,0.221379411,-2.7342203752384617,0.9419634378277955,0.6121068639107552,0.12473376241182166,0.6246865808804192,0.07679447913967596,0.0065564626274457445
0.8450150489807129,0.667462826,0.223392936,-2.728631656523799,0.9430098168146266,0.5588718714662821,0.10463789868311313,0.5685832028446163,0.08183617125922985,0.004936093382403309
0.8547847270965576,0.659983146,0.225384122,-2.722040795679252,0.9443890078443615,0.6590860844546853,0.13791910297349386,0.6733618237521501,0.08861077414169266,0.006830499848673779
0.8648130893707275,0.652437468,0.227352769,-2.7158636550938446,0.9455346011207187,0.6177140585407415,0.11455932763572152,0.6282471628803612,0.09292588256738028,0.004404008319540409
0.874915361404419,0.644826547,0.229298681,-2.7092943030932544,0.9469164729928704,0.6569352000590278,0.13818718721516632,0.6713118171066516,0.09922109665931929,0.0062351844626560415
0.8848528861999512,0.637151144,0.231221664,-2.7024382452358284,0.9481993703066588,0.6856057857425935,0.12828973137883892,0.6975052319667384,0.1051740660334731,0.005955416535540255
0.894798755645752,0.629412027,0.233121524,-2.6954588066444054,0.9496615636632925,0.6979438591423026,0.14621933566336676,0.7130958733832966,0.11059872714770726,0.0054515405608377655
0.9048969745635986,0.621609968,0.234998073,-2.688348795602361,0.9511725054095493,0.7110011042044562,0.15109417462568775,0.7268782702666065,0.11642214860695077,0.00581996383649926
0.9147109985351562,0.613745749,0.236851122,-2.6808447785063505,0.9529708763706776,0.750401709601034,0.17983709611282261,0.7716502490833831,0.12306463831365733,0.006602856023993786
0.9248814582824707,0.605820157,0.238680486,-2.673581216836295,0.9545557190158396,0.7263561670055374,0.158484264516201,0.7434450507241388,0.12799913687209036,0.00499550508852582
0.9347348213195801,0.597833982,0.240485982,-2.6659516560614613,0.9562885675421601,0.7629560774833788,0.17328485263204962,0.7823871268883037,0.13308217008259277,0.005091281250144589
0.945143461227417,0.589788025,0.24226743,-2.658128908364358,0.9583035057428133,0.7822747697103338,0.2014938200653238,0.8078078823890448,0.14085872307882405,0.00771598718625135
0.954848051071167,0.581683089,0.244024651,-2.6500980282715543,0.9602628294060798,0.8030880092803727,0.19593236632664546,0.8266437218199089,0.14558265484297192,0.0047306263160164725
0.9669332504272461,0.573519986,0.24575747,-2.641953879128946,0.9621417963122465,0.8144149142608192,0.18789669061667347,0.835809080421573,0.15228845831120472,0.006695135983491411
0.9751899242401123,0.565299531,0.247465714,-2.633605357820297,0.9642381914516344,0.8348521308648937,0.20963951393878633,0.8607710533086856,0.15807965678763172,0.005784338433097241
0.9849846363067627,0.557022547,0.249149211,-2.6249414781005074,0.9663444659149267,0.8663879719789769,0.2106274463292368,0.8916232607648927,0.16408993216762188,0.006016579094928818
0.994713306427002,0.548689861,0.250807794,-2.616104287739677,0.9689703051662091,0.8837190360830416,0.2625839251282347,0.9219054466002956,0.17158848241638858,0.0075140346369604715
1.0049338340759277,0.540302306,0.252441295,-2.607004091858245,0.9715180256637331,0.9100195881432072,0.2547720497524053,0.9450102899648101,0.17835049707332049,0.006798341981567476
1.0221447944641113,0.531860721,0.254049553,-2.588177653655847,0.9767955967208091,0.9533902514557102,0.275718741027553,0.9924584604529306,0.19297382002084393,0.007832550767068012
1.0257973670959473,0.523365951,0.255632407,-2.588177653655847,0.9767955967208091,0.9533902514557102,0.275718741027553,0.9924584604529306,0.19297382002084393,0.007832550767068012
1.0342965126037598,0.514818845,0.257189697,-2.5784938351724764,0.9795934653319315,0.9683818483370743,0.27978686111224116,1.0079901248721481,0.20079505240930348,0.007786061442109698
1.0445189476013184,0.506220257,0.258721268,-2.5687018952610003,0.9824846082080618,0.9791939911476089,0.2891142876130348,1.0209838116256182,0.2099215201467114,0.008986671723994802
1.0545132160186768,0.497571048,0.260226968,-2.558388872671979,0.9855658252864886,1.0313022589021337,0.308121707842679,1.0763472190982484,0.21456900188198919,0.004702164079704924
1.0647389888763428,0.488872082,0.261706645,-2.547861328465516,0.9888485450283638,1.052754420646318,0.32827197418752174,1.1027485475970202,0.22194919373691646,0.007337412628697667
